timestamp,event,roll,pitch,yaw
0.0231731 ,Left ,65,4679382098442 ,43,2259911223272 ,94,1976762208295
0.0467202 ,Left ,65,4588490775564 ,43,2275066957217 ,94,2261025515888
0.0691593 ,Left ,65,4562407202343 ,43,2249309241588 ,94,2355886665285
0.0901892 ,Left ,65,4747038434002 ,43,225176739873 ,94,2423662524372
0.1065784 ,Left ,65,4902939147788 ,43,1958234271132 ,94,2705697424557
0.1292523 ,Left ,65,5211130405013 ,43,1465638280181 ,94,2891494012927
0.1501618 ,Left ,65,5280672807136 ,43,1011657399475 ,94,301369798465
0.1670223 ,Left ,65,5353044888369 ,43,0612876684029 ,94,3025393574817
0.1895145 ,Left ,65,542282913004 ,43,0193459998064 ,94,2890990374309
0.2108026 ,Left ,65,5492256522865 ,42,974566099491 ,94,2671985343266
0.2270027 ,Left ,65,5198918091656 ,42,9317170414839 ,94,236696264259
0.2490494 ,Left ,65,4736693778567 ,42,891077164018 ,94,20879435213
0.2700959 ,Left ,65,4238636736358 ,42,8662137567888 ,94,1767767616373
0.2866993 ,Left ,65,3590007526673 ,42,8619473473162 ,94,1528860432825
0.3090232 ,Left ,65,2979694840406 ,42,8872452563023 ,94,1166254083691
0.3300635 ,Left ,65,2182305213239 ,42,9302503115529 ,94,0742562760267
0.3467923 ,Left ,65,1248629856112 ,42,9947031887736 ,94,0472228333814
0.3692931 ,Left ,65,0336404893527 ,43,075023490704 ,94,0349053030888
0.3903182 ,Left ,64,9273713496199 ,43,1495202676161 ,94,0410693960968
0.4061588 ,Left ,64,8608902673935 ,43,218824038241 ,94,0544496532481
0.4292149 ,Left ,64,839129275474 ,43,2738823307558 ,94,0711969888717
0.4504939 ,Left ,64,7969567231508 ,43,3032438739495 ,94,1190447928971
0.4660407 ,Left ,64,78939728109 ,43,3273529451325 ,94,1645082575015
0.489323 ,Left ,64,7470150928884 ,43,4263903777514 ,94,2110750634417
0.5117965 ,Left ,64,7265509105785 ,43,4619182665214 ,94,2689704939619
0.5341887 ,Left ,64,7323914450586 ,43,4949376024247 ,94,3316002716286
0.5491329 ,Left ,64,7425454957034 ,43,5497238054033 ,94,3825854740096
0.5717835 ,Left ,64,821560979699 ,43,6113643328535 ,94,4251266385796
0.586112 ,Left ,64,9454287099586 ,43,6697967526106 ,94,4474068427371
0.6092297 ,Left ,65,0089009601668 ,43,691039825526 ,94,47520462031
0.6318828 ,Left ,65,1081362740742 ,43,6853005021879 ,94,51616482956
0.6542885 ,Left ,65,160047467934 ,43,6271228487443 ,94,5766794657263
0.6692272 ,Left ,65,2187267686094 ,43,5592423424211 ,94,6290029404238
0.6917813 ,Left ,65,2728542000763 ,43,4848812997622 ,94,6884151364324
0.7059801 ,Left ,65,3111580048003 ,43,3808812827148 ,94,7443640952434
0.7294758 ,Left ,65,3479743499902 ,43,2747388839276 ,94,7944382973104
0.751922 ,Left ,65,314675408513 ,43,1600910297403 ,94,8632618595666
0.7727892 ,Left ,65,2417611961774 ,43,02784864793 ,94,9788109887918
0.7892332 ,Left ,65,218439343935 ,42,8787835929133 ,95,1245259996937
0.8115342 ,Left ,65,2466996770899 ,42,8458687880841 ,95,1840753520962
0.8327805 ,Left ,65,2309692492129 ,42,8400375147547 ,95,2417029220843
0.8492587 ,Left ,65,3049830632339 ,42,9615960362193 ,95,2904702627525
0.8715589 ,Left ,65,2614586773208 ,43,0944303902612 ,95,3129627012823
0.8927096 ,Left ,65,2398578167792 ,43,1615839005353 ,95,3201046662499
0.9093112 ,Left ,65,2889648036428 ,43,271523321911 ,95,3295670201219
0.9317781 ,Left ,65,3144150457275 ,43,4019790976016 ,95,351413135963
0.9528617 ,Left ,65,2338910934897 ,43,4920767282784 ,95,3672761948791
0.9690569 ,Left ,65,237270756579 ,43,5768732832772 ,95,4231497767134
0.9917423 ,Left ,65,2145110185602 ,43,7424135506197 ,95,5535579468137
1.0125728 ,Left ,65,1809571379334 ,43,9619873781317 ,95,6188928641924
1.0289891 ,Left ,65,1994943322988 ,44,1638327476372 ,95,6404443084528
1.0515797 ,Left ,65,248568585925 ,44,3250577928701 ,95,6499115428282
1.0728692 ,Left ,65,2481908795117 ,44,4413179529551 ,95,635643928606
1.0892441 ,Left ,65,2377540319026 ,44,490308610678 ,95,5776963258717
1.1120823 ,Left ,65,2379665435654 ,44,4698525662596 ,95,5777225171152
1.133279 ,Left ,65,198619827842 ,44,4119184744728 ,95,6034077523244
1.1495967 ,Left ,65,2113605053391 ,44,2963824148734 ,95,6311447255946
1.171805 ,Left ,65,1337988199455 ,44,1961720729974 ,95,670389897191
1.1931762 ,Left ,65,0880950013091 ,44,0749524167642 ,95,6958076429543
1.2087745 ,Left ,65,1101116747718 ,43,9377193365739 ,95,6991445499754
1.2318744 ,Left ,65,1811850078373 ,43,8489978672033 ,95,8049049157704
1.2529142 ,Left ,65,1970954978375 ,44,0281531434647 ,95,9122741138458
1.2693827 ,Left ,65,1353221395675 ,44,288239199794 ,95,9556175835114
1.2918507 ,Left ,65,2236100675424 ,44,4882704553479 ,95,9877886356206
1.3130684 ,Left ,65,3590437306584 ,44,6297162087211 ,96,0271692831324
1.3292162 ,Left ,65,4733694517476 ,44,7340758252937 ,96,0619979089599
1.3517777 ,Left ,65,5015034988183 ,44,825697844059 ,96,0668223939596
1.373122 ,Left ,65,5013568167371 ,44,8834716601588 ,96,0339133348435
1.3886947 ,Left ,65,5194497089644 ,44,9071010593243 ,95,9718390395535
1.4118054 ,Left ,65,5171307329034 ,44,8925910296151 ,95,8895960893871
1.4341239 ,Left ,65,5031711371074 ,44,8531364566325 ,95,8016017643167
1.4485866 ,Left ,65,4876576183497 ,44,7812097930117 ,95,7054538151199
1.4718343 ,Left ,65,4758249040333 ,44,6591350089376 ,95,6003112772179
1.4943163 ,Left ,65,5079157931366 ,44,5260727281871 ,95,4934581712749
1.5083995 ,Left ,65,496963794681 ,44,425537086705 ,95,4163073987451
1.5317821 ,Left ,65,4302747638799 ,44,3427819655389 ,95,3428435862001
1.5543611 ,Left ,65,4467124520192 ,44,2489054761377 ,95,2724726606963
1.5687356 ,Left ,65,5105579938254 ,44,1645219779519 ,95,2242030184112
1.5917973 ,Left ,65,4856033341067 ,44,138945824715 ,95,2176990679357
1.6142273 ,Left ,65,3754910858583 ,44,1147826477481 ,95,2447632632113
1.6285642 ,Left ,65,3927030120242 ,44,112243757919 ,95,2833951398172
1.6516562 ,Left ,65,2767984297588 ,44,2090104307845 ,95,2880221673957
1.674594 ,Left ,65,2600481116885 ,44,2476928125219 ,95,3001702880175
1.695714 ,Left ,65,4341519627935 ,44,1849349489652 ,95,3024627321943
1.7120477 ,Left ,65,6279486685693 ,44,0675664537215 ,95,2951612678938
1.7344089 ,Left ,65,7787903919238 ,43,9183201485919 ,95,2542632666983
1.7556967 ,Left ,65,7874970407274 ,43,7596890781773 ,95,195234125315
1.7718893 ,Left ,65,7128562394589 ,43,5959806553588 ,95,124501586985
1.8018748 ,Left ,65,7141134856722 ,43,4981019055655 ,95,0128608151065
1.815604 ,Left ,65,7526491704333 ,43,4163996040909 ,94,9087506655791
1.8317321 ,Left ,65,741493787575 ,43,2028919066068 ,94,9605751940022
1.8541551 ,Left ,65,6375481790659 ,42,9107978709244 ,95,1958994089252
1.875722 ,Left ,65,7164320825035 ,42,8537137776809 ,95,3934786541855
1.8915642 ,Left ,65,5959911982631 ,43,0007340985136 ,95,495619068841
1.9140584 ,Left ,65,59175373191 ,43,1811947524726 ,95,5999089104053
1.9366454 ,Left ,65,6869064139629 ,43,3448413225596 ,95,7130002379526
1.9509349 ,Left ,65,8300831961942 ,43,4414962719945 ,95,7996004879446
1.9740807 ,Left ,65,9325692162276 ,43,5215907539692 ,95,8447085042682
1.9952451 ,Left ,65,938679572193 ,43,5827856666925 ,95,8604825226295
2.0115794 ,Left ,65,9273641578927 ,43,6028656697405 ,95,8439170644812
2.0341251 ,Left ,65,9470982297096 ,43,5767932125115 ,95,7450377603362
2.0554328 ,Left ,65,9046153518596 ,43,4689670366868 ,95,5869220830642
2.071903 ,Left ,65,8342166161028 ,43,3229241367561 ,95,3873437502771
2.094059 ,Left ,65,8158802041806 ,43,151298028958 ,95,1655413710345
2.1151117 ,Left ,65,7912776348371 ,42,9414960928011 ,94,9734410561188
2.1317329 ,Left ,65,7333177335662 ,42,7724183751489 ,94,8195683935543
2.1540795 ,Left ,65,6187277280511 ,42,6362117614962 ,94,700037731656
2.1767764 ,Left ,65,5433802460494 ,42,5176378430835 ,94,6215897134721
2.1979216 ,Left ,65,5204599023784 ,42,457886863807 ,94,5795505421718
2.2143051 ,Left ,65,4798868333754 ,42,4422903789738 ,94,5459501648915
2.2368658 ,Left ,65,4217779362767 ,42,4529915130459 ,94,5142039322203
2.2579621 ,Left ,65,4088164164589 ,42,4764959068202 ,94,4653556510284
2.2742794 ,Left ,65,3988746122013 ,42,5077782506935 ,94,41058169471
2.2953499 ,Left ,65,3699832847287 ,42,5745168820931 ,94,3575584187995
2.3110715 ,Left ,65,2960694094803 ,42,6709636380338 ,94,3383996938925
2.3342999 ,Left ,65,2383856109053 ,42,8157163959173 ,94,3217456644338
2.3551257 ,Left ,65,1761938531829 ,42,9722087071824 ,94,3174105240922
2.3777999 ,Left ,65,1271840688377 ,43,1464398600409 ,94,3201170933031
2.3940628 ,Left ,65,086285940273 ,43,3026518637178 ,94,3312419812554
2.416758 ,Left ,65,0693616561775 ,43,3912880137395 ,94,3701663073643
2.4381164 ,Left ,65,1013092469856 ,43,4507060795482 ,94,423861544448
2.4544732 ,Left ,65,0997626926718 ,43,485769043154 ,94,4939933992005
2.4768089 ,Left ,65,0571000551054 ,43,5395857575149 ,94,5764434841512
2.4979446 ,Left ,65,1343215262658 ,43,5508155330758 ,94,6443664040175
2.51397 ,Left ,65,2186171949126 ,43,520187723303 ,94,7598225339468
2.5367898 ,Left ,65,2620711098362 ,43,5893593824978 ,94,909467194948
2.5577989 ,Left ,65,2903897485617 ,43,7590974022052 ,95,0156454750478
2.5738319 ,Left ,65,4158659943938 ,43,9518216693096 ,95,0442096868302
2.5972216 ,Left ,65,5574045237905 ,44,0735445847888 ,95,0424730437864
2.6177083 ,Left ,65,6112941531415 ,44,146606773421 ,95,0543136639561
2.6341422 ,Left ,65,6465147117244 ,44,1715993267613 ,95,0410610618628
2.6566515 ,Left ,65,6428660832288 ,44,0964452612306 ,95,0433610060843
2.6778307 ,Left ,65,6173300652144 ,43,9577203506715 ,95,0682075873464
2.6941942 ,Left ,65,5633494824147 ,43,8043851273953 ,95,1234691705002
2.7167917 ,Left ,65,4970660078749 ,43,6137901810588 ,95,2245399019323
2.7376748 ,Left ,65,5272979941719 ,43,4635792205497 ,95,3002261843701
2.7540313 ,Left ,65,5771074686692 ,43,3154886253425 ,95,3767642261981
2.7766296 ,Left ,65,606456191808 ,43,355999323476 ,95,4171042152925
2.7976736 ,Left ,65,5289915672948 ,43,4113608317649 ,95,4212562652244
2.814324 ,Left ,65,5208275795809 ,43,4687206895447 ,95,3895966633505
2.8373557 ,Left ,65,5614674811943 ,43,53336558817 ,95,3380927127303
2.851435 ,Left ,65,5306891174622 ,43,5720838204749 ,95,3412636353806
2.8745952 ,Left ,65,5184373984064 ,43,6159652214567 ,95,3627992432983
2.8968004 ,Left ,65,3925871311921 ,43,6655515462418 ,95,441499816829
2.9179318 ,Left ,65,3362756606379 ,43,8627901001145 ,95,573634722279
2.9342064 ,Left ,65,2878695748146 ,44,1223470062007 ,95,6623766298801
2.9568144 ,Left ,65,267660121343 ,44,3449825211588 ,95,7070664862731
2.9780944 ,Left ,65,2837021565105 ,44,4986120367655 ,95,7464152379397
3.0006736 ,Left ,65,2326817018773 ,44,5846768595758 ,95,7783611696278
3.0165804 ,Left ,65,1802986709984 ,44,600194946873 ,95,7788663746862
3.0377839 ,Left ,65,1446311178572 ,44,5339837222561 ,95,7767007965276
3.0543831 ,Left ,65,073559125361 ,44,4731312267003 ,95,7880657873928
3.0771055 ,Left ,65,0699212058607 ,44,4062902612746 ,95,7352546180153
3.0981637 ,Left ,65,0379185166676 ,44,4241622621293 ,95,732838400452
3.1145547 ,Left ,64,9996308403108 ,44,64099433057 ,95,7020519679443
3.1368113 ,Left ,64,9656147729836 ,44,8544723536831 ,95,5992592632928
3.1581336 ,Left ,65,0249464055358 ,44,9390847212024 ,95,4711999127118
3.1743218 ,Left ,65,1186460332027 ,44,9533943074426 ,95,3493346947639
3.1969095 ,Left ,65,0855745750393 ,44,897541645202 ,95,2519987048206
3.2181465 ,Left ,65,0719808278828 ,44,7816219998926 ,95,1544532656201
3.2343652 ,Left ,65,0922748383858 ,44,6359377539449 ,95,0844616573269
3.2570066 ,Left ,65,1515699492469 ,44,504142460782 ,95,046312521019
3.2782181 ,Left ,65,2182396912918 ,44,4257620538684 ,95,0340957246778
3.2937533 ,Left ,65,2757692735049 ,44,3874806808946 ,95,0451825000852
3.3169728 ,Left ,65,3126844113296 ,44,3809084441576 ,95,0630780967521
3.3394375 ,Left ,65,3713054217973 ,44,3915620159982 ,95,067549253878
3.3544043 ,Left ,65,4418089314394 ,44,3846498513083 ,95,0493202540536
3.3769234 ,Left ,65,530137414287 ,44,3619999425211 ,95,0147099600159
3.3994467 ,Left ,65,5522776162437 ,44,3064932845916 ,94,973143727347
3.4144318 ,Left ,65,5666021948983 ,44,2477772412056 ,94,9322491904292
3.4369028 ,Left ,65,5638664628224 ,44,2176299833197 ,94,8872262766045
3.4592244 ,Left ,65,4979762778194 ,44,2086729103161 ,94,8419670390171
3.4741535 ,Left ,65,4115311547364 ,44,1793160743282 ,94,7928362479665
3.4965664 ,Left ,65,3504467151959 ,44,1598142532518 ,94,7407684275766
3.5192868 ,Left ,65,3144610615462 ,44,1906289767027 ,94,7061486931837
3.5336938 ,Left ,65,2619410103324 ,44,2117311776429 ,94,7067750140123
3.5568604 ,Left ,65,2102582395672 ,44,1528536903705 ,94,767116337695
3.5794058 ,Left ,65,2254859472796 ,44,0585297320802 ,94,8485838435539
3.6006298 ,Left ,65,2609917330751 ,44,084638648153 ,94,9161287365934
3.6168995 ,Left ,65,2294869258487 ,44,1975175928914 ,94,9522235244218
3.6394882 ,Left ,65,2827142869575 ,44,2402801758519 ,94,9790250052698
3.6604778 ,Left ,65,4058927658466 ,44,1763547307084 ,95,0031994232247
3.6770284 ,Left ,65,4718887291016 ,44,1070495008912 ,95,0300797455762
3.6995291 ,Left ,65,5315721408542 ,43,9762828874617 ,95,0315600095088
3.7206894 ,Left ,65,6010976696796 ,43,8113354969486 ,94,9960807087222
3.7369111 ,Left ,65,6156969093337 ,43,6637071436126 ,94,9606041950169
3.7592398 ,Left ,65,6806181638842 ,43,6059112692801 ,94,9126699574909
3.780497 ,Left ,65,7151503435276 ,43,5310615276609 ,94,8856087759218
3.7967877 ,Left ,65,6400580542675 ,43,3646324146291 ,94,9674030236729
3.8191057 ,Left ,65,7160904206738 ,43,2652022541388 ,95,1044516469397
3.8246186 ,Left ,65,7774579801355 ,43,3543235679813 ,95,1213089478303
3.8472319 ,Left ,65,7640461730616 ,43,4698061563142 ,95,099163373246
3.8621183 ,Left ,65,8194657374636 ,43,5230019953573 ,95,068488715218
3.8844676 ,Left ,65,8519877943394 ,43,5383342952669 ,95,0597067798804
3.9024041 ,Left ,65,8750413677972 ,43,6121045217369 ,95,0362354568323
3.921955 ,Left ,65,8345144837579 ,43,6684194665673 ,95,0225517622232
3.9445403 ,Left ,65,7823408696976 ,43,6375928461281 ,95,0233357636509
3.9626993 ,Left ,65,7615355822401 ,43,5005683690286 ,95,0573838957242
3.9822884 ,Left ,65,7669101114488 ,43,3456678833902 ,95,0877193076238
4.0046027 ,Left ,65,7289652367785 ,43,2013089519964 ,95,0804037980132
4.0269522 ,Left ,65,6526491239621 ,43,0510858798636 ,95,0497259513674
4.0419329 ,Left ,65,5932702724736 ,42,9503241848878 ,95,0189698805021
4.0643563 ,Left ,65,4954200808228 ,42,8715928622736 ,94,9969203942961
4.0869501 ,Left ,65,4607033970901 ,42,8064222787645 ,94,9663340004263
4.10204 ,Left ,65,4457132777534 ,42,7697599285006 ,94,9221952623951
4.1246165 ,Left ,65,3762455522193 ,42,7486855177362 ,94,8699928483887
4.147177 ,Left ,65,2787220328717 ,42,7291923966757 ,94,8209363601751
4.1623241 ,Left ,65,2294326455913 ,42,7112840506279 ,94,7724512965333
4.1846566 ,Left ,65,1839461633374 ,42,6907156399146 ,94,7150728887211
4.2073103 ,Left ,65,1279483930688 ,42,682667753821 ,94,6590891503679
4.2220232 ,Left ,65,0928479956867 ,42,7155621050572 ,94,5921784950307
4.2446755 ,Left ,65,0381296452113 ,42,7824698472795 ,94,5144865010508
4.2673037 ,Left ,65,003178023441 ,42,8956730822357 ,94,4434420329526
4.2823145 ,Left ,64,9675263384329 ,43,0480318413778 ,94,3961493467644
4.3044271 ,Left ,64,9371994625462 ,43,2118616721544 ,94,3634449152864
4.3278136 ,Left ,64,9136149186606 ,43,3148611047942 ,94,347131594948
4.3440381 ,Left ,64,9513600013775 ,43,3558306877436 ,94,3589162865562
4.3653046 ,Left ,65,0235160632782 ,43,3792562073592 ,94,3642856023548
4.3874682 ,Left ,64,9910334092702 ,43,397969696366 ,94,3876727758934
4.4052585 ,Left ,65,0601599645893 ,43,4360205246109 ,94,4195226504702
4.424455 ,Left ,65,0794992382362 ,43,4130994725864 ,94,5410103783137
4.4471733 ,Left ,65,1206010485821 ,43,4445830299769 ,94,6902637270535
4.4649762 ,Left ,65,1756805912359 ,43,5717810332106 ,94,7902242599015
4.4844582 ,Left ,65,3003076849519 ,43,7874114450312 ,94,8165912730655
4.5071016 ,Left ,65,4361001253089 ,43,9652615119737 ,94,8097749832051
4.5237216 ,Left ,65,5190427624789 ,44,0569583163831 ,94,8259251726555
4.5446532 ,Left ,65,5764167796866 ,44,0886515129571 ,94,8389178136735
4.5674671 ,Left ,65,5883847231085 ,44,0357651953481 ,94,8626575270926
4.5838102 ,Left ,65,5202083121135 ,43,9210978474661 ,94,9029208350158
4.6046101 ,Left ,65,4851986825483 ,43,7671519351743 ,94,9477493899576
4.6274317 ,Left ,65,4584299565239 ,43,5419308446537 ,95,0297938728642
4.6437989 ,Left ,65,5172246362441 ,43,3386150324438 ,95,1035396553381
4.6643358 ,Left ,65,5229269039599 ,43,1487176682033 ,95,1495861828383
4.6871912 ,Left ,65,555174028772 ,43,158593007324 ,95,1462305122617
4.7020067 ,Left ,65,4837704935972 ,43,2191105257401 ,95,1126744565329
4.7244068 ,Left ,65,454818228191 ,43,3340582104967 ,95,0933851751423
4.747142 ,Left ,65,4385350200589 ,43,4742969102853 ,95,0933603479775
4.762058 ,Left ,65,4181675292395 ,43,5359438021874 ,95,1387059785555
4.7845433 ,Left ,65,4072481534455 ,43,5266939010293 ,95,2569819390673
4.8074555 ,Left ,65,4148886533188 ,43,6333682214364 ,95,333774227664
4.8224926 ,Left ,65,4455303458649 ,43,8214572084555 ,95,3190732790305
4.8449034 ,Left ,65,4310333133954 ,44,0288696419765 ,95,2980151968278
4.867227 ,Left ,65,4032311092669 ,44,1876798641289 ,95,3074326861795
4.883766 ,Left ,65,3703324648458 ,44,2666347010756 ,95,3197924108195
4.9048928 ,Left ,65,282982069803 ,44,2806934523933 ,95,3598449494937
4.927489 ,Left ,65,1386653089633 ,44,2142627102028 ,95,4416508397164
4.9436993 ,Left ,65,0957553569937 ,44,0622424840199 ,95,5748014617415
4.9648316 ,Left ,65,205422535581 ,44,0126631142958 ,95,7020987455047
4.9873705 ,Left ,65,1881694394958 ,44,2153738311796 ,95,8234290900744
5.0035697 ,Left ,65,0941168184559 ,44,5123584950404 ,95,934219278758
5.0244181 ,Left ,65,1590160881541 ,44,7927612337605 ,96,0655258669184
5.0469368 ,Left ,65,280288861574 ,45,0351121229141 ,96,1716902265579
5.0648761 ,Left ,65,3520854878192 ,45,2244411029988 ,96,2174785449121
5.0844324 ,Left ,65,3796488472924 ,45,3806120716824 ,96,2052861397284
5.1068379 ,Left ,65,414329578359 ,45,4811795281894 ,96,1572458276951
5.1233993 ,Left ,65,4401970751006 ,45,5234384837268 ,96,0774213302869
5.1444863 ,Left ,65,4287032983732 ,45,5328534166467 ,95,9745366131098
5.1669898 ,Left ,65,3843411100757 ,45,4788693102598 ,95,8460313027621
5.1832722 ,Left ,65,3644877406742 ,45,3523731308523 ,95,6975695862831
5.2046201 ,Left ,65,3874763958472 ,45,2222336049477 ,95,5380322331372
5.2269422 ,Left ,65,3879348434392 ,45,0825387940999 ,95,3979480173377
5.2449035 ,Left ,65,3690115660397 ,44,9951269356805 ,95,2766658518809
5.2645633 ,Left ,65,3276558189657 ,44,9668382906705 ,95,1605682911558
5.2871321 ,Left ,65,292010211003 ,44,9316552781343 ,95,049128031661
5.305191 ,Left ,65,321336743949 ,44,7463372646239 ,95,0367934861132
5.3245779 ,Left ,65,4538045547802 ,44,5118600547868 ,95,098062408596
5.3471954 ,Left ,65,594105969744 ,44,5371056418973 ,95,1110362336962
5.3651752 ,Left ,65,6446632357623 ,44,6156132916066 ,95,0718187864108
5.3848649 ,Left ,65,7440842483206 ,44,5726216653602 ,95,0298587165883
5.4075288 ,Left ,65,833538476996 ,44,4282236136295 ,94,9951947632117
5.4253153 ,Left ,65,8973706615096 ,44,263730465961 ,94,9858282752234
5.4523201 ,Left ,65,9567260337186 ,44,0716115531317 ,94,9832122484117
5.4674937 ,Left ,65,9626592185242 ,43,8226159710019 ,94,9668560330811
5.485146 ,Left ,65,9278699819963 ,43,5763883432039 ,94,9935620056089
5.506153 ,Left ,65,9118777230074 ,43,384054479628 ,95,0390463643354
5.5286544 ,Left ,65,8883586030708 ,43,1779528803464 ,95,1102675474907
5.5451714 ,Left ,65,9246877493377 ,43,0254160013798 ,95,2303517452146
5.5662346 ,Left ,65,9486418930566 ,43,0237968467236 ,95,3552153222529
5.5871255 ,Left ,66,0266501889703 ,43,205391135336 ,95,3955429859032
5.6050539 ,Left ,66,0662331000788 ,43,3706121045253 ,95,4379821073805
5.6245324 ,Left ,66,1901312991716 ,43,4798515976125 ,95,4844433176918
5.6472554 ,Left ,66,2214964494122 ,43,546590635642 ,95,5354690198413
5.6650252 ,Left ,66,1857753625937 ,43,6061188269324 ,95,5876651925046
5.6875263 ,Left ,66,1662504305033 ,43,644956613412 ,95,6054055073748
5.7073341 ,Left ,66,1493486505918 ,43,597568199755 ,95,5627324638073
5.7249424 ,Left ,66,1240253998798 ,43,4692446763331 ,95,5183529461573
5.7477683 ,Left ,66,0958266831198 ,43,3305746255986 ,95,4972215045375
5.7670585 ,Left ,66,0608415639285 ,43,2288819949518 ,95,467428732196
5.7848443 ,Left ,66,008810288532 ,43,1353072922103 ,95,4036048114673
5.8061157 ,Left ,65,928491681392 ,43,0377535632302 ,95,3364507494842
5.8271482 ,Left ,65,8876157009585 ,42,9525934777017 ,95,2828374638158
5.8450919 ,Left ,65,8356596877821 ,42,9199161111635 ,95,2305732018013
5.8661989 ,Left ,65,8081308608087 ,42,9093637304122 ,95,168147177144
5.8873921 ,Left ,65,7694538073706 ,42,9031837630689 ,95,1097979075552
5.9052483 ,Left ,65,6870344231005 ,42,8894870213319 ,95,0810950871393
5.9262108 ,Left ,65,5940150570625 ,42,8651928319002 ,95,0628772204225
5.9474716 ,Left ,65,5383185703104 ,42,844563895367 ,95,0444273241528
5.9651684 ,Left ,65,4857936997956 ,42,8569925792831 ,95,0113813910835
5.9861655 ,Left ,65,422387248468 ,42,8684451029147 ,94,96954357747
6.0074852 ,Left ,65,3757391757258 ,42,8983044254944 ,94,9197505062055
6.0252695 ,Left ,65,3285712440505 ,42,9560297383033 ,94,8600903540959
6.0462477 ,Left ,65,2709956616709 ,43,0586790932023 ,94,8016407746937
6.0674807 ,Left ,65,2286088872154 ,43,19413212212 ,94,7524299636394
6.0853016 ,Left ,65,2001902265719 ,43,3312897507071 ,94,7381590542148
6.1062566 ,Left ,65,2079661898852 ,43,4663859345683 ,94,7319173729555
6.1274978 ,Left ,65,1800258307245 ,43,5586319122752 ,94,7331220797033
6.1449106 ,Left ,65,1991123166202 ,43,6078059149103 ,94,7619845818588
6.1660899 ,Left ,65,2266746358056 ,43,6977390208136 ,94,8211856105245
6.1869164 ,Left ,65,2379233161667 ,43,7566493761085 ,94,8615978301786
6.2049428 ,Left ,65,3244170759687 ,43,695432051832 ,94,9301703828629
6.2276913 ,Left ,65,4110186376227 ,43,6352020057057 ,95,0414587512484
6.2473665 ,Left ,65,3875006202634 ,43,7275407248044 ,95,1212128491414
6.2651252 ,Left ,65,4825748864307 ,43,8969156394955 ,95,0963950336102
6.2874835 ,Left ,65,6292776466834 ,44,0185282478298 ,95,0498750170716
6.3071729 ,Left ,65,7095213323848 ,44,0924411779682 ,95,0227329422589
6.3296335 ,Left ,65,7331957438225 ,44,1053393909429 ,94,9959562114124
6.3475633 ,Left ,65,7371953945132 ,44,0376554658261 ,94,9798200549668
6.3671073 ,Left ,65,6933051960834 ,43,937741945584 ,94,980396761569
6.3899126 ,Left ,65,6799612842417 ,43,8063059493484 ,94,9826401446315
6.4077402 ,Left ,65,6677561721076 ,43,5942899411898 ,95,02446937725
6.4275058 ,Left ,65,6680158224203 ,43,3705667211373 ,95,0808541803377
6.4500302 ,Left ,65,7714307085261 ,43,2273970756504 ,95,1188199656299
6.4675971 ,Left ,65,8189192976182 ,43,2707166225965 ,95,0927072506211
6.4875485 ,Left ,65,7440168101771 ,43,3122112930029 ,95,0514866390049
6.5097286 ,Left ,65,7815402295354 ,43,4269567905513 ,95,0171597907889
6.5277276 ,Left ,65,781232665463 ,43,5768667074237 ,95,0373657818707
6.5474768 ,Left ,65,811556986602 ,43,6536058427012 ,95,1114816724251
6.5697843 ,Left ,65,752116860303 ,43,7138431683824 ,95,2449000507878
6.5876491 ,Left ,65,7652061322149 ,43,8714969622054 ,95,3387597251738
6.6069887 ,Left ,65,728676011449 ,44,0454635712383 ,95,3560880046574
6.6294948 ,Left ,65,7045559927824 ,44,2486871840522 ,95,3615115777152
6.6476163 ,Left ,65,6565130165925 ,44,4071398758508 ,95,36575006634
6.6673402 ,Left ,65,6214217354803 ,44,5037699479608 ,95,3970236813169
6.6899718 ,Left ,65,5061727642774 ,44,5197840368166 ,95,5055737073131
6.7078408 ,Left ,65,4154338381181 ,44,4606105167 ,95,6308969531291
6.7272434 ,Left ,65,4527501460972 ,44,3971045962875 ,95,6917353784049
6.7500081 ,Left ,65,4342576432115 ,44,3369642036833 ,95,7859068047438
6.7676119 ,Left ,65,5132041618004 ,44,4479507150595 ,95,824561327294
6.7885429 ,Left ,65,4946251419275 ,44,6047799882879 ,95,8415760754636
6.8093487 ,Left ,65,5681808437874 ,44,8007676491842 ,95,8207361912013
6.8275843 ,Left ,65,6850215287153 ,45,0034017085744 ,95,8179893816068
6.8486023 ,Left ,65,7586562286032 ,45,1289640875631 ,95,8459381301863
6.8695144 ,Left ,65,7918740908382 ,45,263160228585 ,95,8710049524724
6.8876002 ,Left ,65,8417065860714 ,45,3831774697473 ,95,8640940207421
6.9086769 ,Left ,65,8927579843266 ,45,4532032602655 ,95,8616662388716
6.9296797 ,Left ,65,9522872701737 ,45,4747268055144 ,95,8656685655156
6.9475496 ,Left ,66,0294214354401 ,45,4327214573025 ,95,8706565594808
6.9691656 ,Left ,66,0799606650731 ,45,355955914772 ,95,8651394998291
6.989836 ,Left ,66,1584089102812 ,45,3024341155878 ,95,8442770717362
7.00759 ,Left ,66,2368508671237 ,45,2830927954261 ,95,8026369227438
7.0376085 ,Left ,66,2901836771174 ,45,2461458597397 ,95,7406205653376
7.0502681 ,Left ,66,3790008355135 ,45,2003739534133 ,95,6686684676628
7.0645777 ,Left ,66,4397591132407 ,45,1738446111236 ,95,6054182983061
7.0871484 ,Left ,66,580968393014 ,45,0223778179931 ,95,5165142366629
7.1098153 ,Left ,66,7612077052666 ,45,1573700688085 ,95,3890970976657
7.124641 ,Left ,66,6889205831438 ,45,0469369537533 ,95,3504822580937
7.1473602 ,Left ,66,3954857805947 ,44,904543856505 ,95,3764807311346
7.1697402 ,Left ,66,5348751360272 ,44,8873014772123 ,95,31267753162
7.1861342 ,Left ,66,4660508429558 ,44,6301302760824 ,95,3548735951144
7.2072932 ,Left ,66,2437426224555 ,44,4297206294575 ,95,4342559190419
7.2295796 ,Left ,66,3296758479276 ,44,4002828713609 ,95,3634477423263
7.2461242 ,Left ,66,2672759936698 ,44,4310889672912 ,95,3140478611812
7.2670637 ,Left ,66,3237097914322 ,44,3661372891618 ,95,2806056460326
7.2894706 ,Left ,66,4289985572626 ,44,2380710162467 ,95,25567344108
7.3058828 ,Left ,66,4565178026744 ,44,065788733798 ,95,2315011117325
7.3268896 ,Left ,66,4638734951884 ,43,8436401492756 ,95,214668320315
7.3494045 ,Left ,66,4539651123146 ,43,584270899696 ,95,1692131825435
7.3657889 ,Left ,66,5173108246526 ,43,4912515589784 ,95,0599781690176
7.3869374 ,Left ,66,6539546159894 ,43,4845661637875 ,94,9791287623938
7.4094373 ,Left ,66,5988015848478 ,43,3642731762209 ,95,0689275755466
7.4259553 ,Left ,66,6154437277607 ,43,2613394080831 ,95,2305436672346
7.4471387 ,Left ,66,5454493331984 ,43,3787934052594 ,95,3389901961876
7.469685 ,Left ,66,5005788239478 ,43,5844303643899 ,95,4285318692813
7.4859456 ,Left ,66,528024632375 ,43,7225959180011 ,95,5195220265385
7.5073236 ,Left ,66,6341794118529 ,43,7959936329027 ,95,6203892412947
7.5299901 ,Left ,66,6190391857351 ,43,8333984321648 ,95,7165217600414
7.5461495 ,Left ,66,5997941519401 ,43,8410673591037 ,95,7902126621088
7.5671521 ,Left ,66,574925452539 ,43,7713144177075 ,95,8096307487968
7.5899621 ,Left ,66,5581908495749 ,43,6432639842859 ,95,7615589535769
7.6061822 ,Left ,66,5269914803497 ,43,4762544118083 ,95,681269005734
7.6271415 ,Left ,66,5072596733546 ,43,3474526447483 ,95,5694091420573
7.6497801 ,Left ,66,4702971638555 ,43,226571659373 ,95,4457010206334
7.6660893 ,Left ,66,4519563796793 ,43,0981779751177 ,95,3223565928734
7.6872816 ,Left ,66,420873922638 ,42,9611225260869 ,95,2392329987212
7.7094931 ,Left ,66,3744127837317 ,42,8407044760013 ,95,1805804987694
7.7263776 ,Left ,66,3084152861283 ,42,7823223682017 ,95,1237820607947
7.7474782 ,Left ,66,2286527218443 ,42,7763529956474 ,95,0737086898489
7.7699707 ,Left ,66,1836096086881 ,42,7721825731218 ,95,0393176771831
7.7864281 ,Left ,66,1521724184895 ,42,748326868175 ,95,0247734493922
7.8075489 ,Left ,66,1254994765756 ,42,7322563305499 ,95,000218977872
7.8301222 ,Left ,66,0636131923464 ,42,7315472518374 ,94,9666802987587
7.8463016 ,Left ,65,9846269538343 ,42,7639861058074 ,94,9087547296979
7.8675437 ,Left ,65,9259499163886 ,42,8100325332333 ,94,8387995279551
7.8901628 ,Left ,65,8681881573207 ,42,8792972038274 ,94,7595358976274
7.9062777 ,Left ,65,7974345784512 ,42,9827665042595 ,94,6891201896754
7.9295372 ,Left ,65,6982126006248 ,43,1193041953467 ,94,6366918782961
7.950658 ,Left ,65,6010294566022 ,43,2575284312332 ,94,6067641125943
7.966969 ,Left ,65,5364012620936 ,43,3511770665273 ,94,5936330134118
7.989585 ,Left ,65,5281805389903 ,43,4073370554079 ,94,5919456727957
8.0106483 ,Left ,65,5352634751079 ,43,4439815642653 ,94,6169123365302
8.0262742 ,Left ,65,5535638702429 ,43,462950777814 ,94,6183814773671
8.0494109 ,Left ,65,5473017720798 ,43,4236783355733 ,94,6769444975669
8.0718485 ,Left ,65,5598283982322 ,43,3538796444089 ,94,7703743624757
8.0866655 ,Left ,65,5472493998523 ,43,4129237213418 ,94,8267116293078
8.1093104 ,Left ,65,666859460301 ,43,5629545015813 ,94,8047506341718
8.1315912 ,Left ,65,7907403631598 ,43,6826656819196 ,94,7709767428487
8.1458938 ,Left ,65,8488540598346 ,43,7663785801291 ,94,7372658572458
8.1690259 ,Left ,65,8876803475937 ,43,7939280711255 ,94,7335671366359
8.1915805 ,Left ,65,8925414984959 ,43,7699416832727 ,94,7488841537721
8.2061137 ,Left ,65,8593788402679 ,43,7182927568916 ,94,7861759929062
8.2292072 ,Left ,65,84403425519 ,43,6299823605275 ,94,8379770969295
8.2518066 ,Left ,65,8142314513229 ,43,4731164112957 ,94,9399265563383
8.2661706 ,Left ,65,8563432068485 ,43,3267374473847 ,94,983280374597
8.2892589 ,Left ,65,957237527737 ,43,2058580273318 ,95,0037606956747
8.3119849 ,Left ,66,0267422818276 ,43,2171506440356 ,94,9875769115002
8.3262091 ,Left ,65,9654457659157 ,43,2467725159131 ,94,9620056578558
8.3491614 ,Left ,65,9992741730621 ,43,3326187108576 ,94,9349367372598
8.3717215 ,Left ,65,9708419245991 ,43,4479637605963 ,94,9487286765616
8.3860353 ,Left ,65,9634131690953 ,43,5294592637972 ,95,0151022498183
8.4092904 ,Left ,65,9383728171713 ,43,6344775917733 ,95,1411963442617
8.4318391 ,Left ,65,9158849103258 ,43,7793869193952 ,95,2659276949622
8.4528431 ,Left ,65,9502136175563 ,43,9312636185302 ,95,3192955783909
8.4694814 ,Left ,65,9064053187107 ,44,0695475484642 ,95,3562693713736
8.4918672 ,Left ,65,8687509312146 ,44,2124552676798 ,95,3842363959204
8.5128113 ,Left ,65,8291882851537 ,44,3099521979634 ,95,4012879736347
8.52946 ,Left ,65,7390740199497 ,44,2943554949723 ,95,4538293475217
8.5518658 ,Left ,65,6498511396407 ,44,2521345963538 ,95,5895467868509
8.5728553 ,Left ,65,6321628202879 ,44,2129419628213 ,95,7039178042609
8.589236 ,Left ,65,6238230618027 ,44,1589097397354 ,95,8212215724944
8.6117949 ,Left ,65,6202127325973 ,44,3051475693389 ,95,9539883694127
8.6328207 ,Left ,65,5057477309674 ,44,5358103570495 ,96,0255290594714
8.6492464 ,Left ,65,5600380967841 ,44,7367056002167 ,96,0585955230894
8.6718861 ,Left ,65,708331205362 ,44,950857529391 ,96,0598224912755
8.6928742 ,Left ,65,782454851065 ,45,1211899484971 ,96,0402039353898
8.7092605 ,Left ,65,7714042566079 ,45,2185488928581 ,96,0099914257126
8.7317577 ,Left ,65,7496620277158 ,45,2912956265194 ,95,9476178830522
8.7526994 ,Left ,65,7292105332247 ,45,3260648692239 ,95,8838174664867
8.7691421 ,Left ,65,7434114950177 ,45,2931927621795 ,95,8092171238033
8.7917778 ,Left ,65,7622106541198 ,45,1820406244203 ,95,7019007996059
8.8131069 ,Left ,65,7437243004802 ,45,0174938866387 ,95,5960747108101
8.8293257 ,Left ,65,7693360468637 ,44,8490130975173 ,95,4970516847411
8.8519762 ,Left ,65,7560044576288 ,44,6963716648376 ,95,4020658490646
8.8731428 ,Left ,65,6975126478968 ,44,5395981344123 ,95,3269131676707
8.8893065 ,Left ,65,6925276778912 ,44,3981662368279 ,95,302490040508
8.9120602 ,Left ,65,6780556980282 ,44,3870332545998 ,95,3003105264892
8.9329416 ,Left ,65,6894971968444 ,44,4452669159662 ,95,286616518185
8.9486819 ,Left ,65,7797174958227 ,44,4259698507886 ,95,2846083310731
8.9780474 ,Left ,65,9105682595256 ,44,273377449082 ,95,2678740864398
8.9943717 ,Left ,66,0154288676948 ,44,0804174095807 ,95,2575489911461
9.008759 ,Left ,66,0399486583097 ,43,8437459100793 ,95,2464149750065
9.0317432 ,Left ,66,0218968263122 ,43,5659604107351 ,95,2424059772828
9.0543356 ,Left ,65,9918465297997 ,43,3401299508023 ,95,239831253835
9.0684412 ,Left ,66,0280046525729 ,43,1849337360578 ,95,24856355014
9.0916 ,Left ,66,0409149971501 ,43,0459757271 ,95,3131581243379
9.1141864 ,Left ,66,1055422436503 ,42,9727515751946 ,95,4189457972602
9.1353986 ,Left ,66,1251684136661 ,43,1143494448682 ,95,4791270681725
9.1516923 ,Left ,66,060167666077 ,43,2486966574392 ,95,5531601538107
9.1743223 ,Left ,66,1636392162295 ,43,5148842632389 ,95,6264454708961
9.1954074 ,Left ,66,1299903313258 ,43,6067023270457 ,95,7314470140448
9.2118221 ,Left ,66,0468202677296 ,43,5850344419258 ,95,8165409567886
9.2341621 ,Left ,65,8663955019374 ,43,5208153165532 ,95,8833971072086
9.2553716 ,Left ,65,667460967131 ,43,3987862271755 ,95,8804792427199
9.27175 ,Left ,65,493330174426 ,43,179386188238 ,95,8531692837674
9.2942128 ,Left ,65,338499402543 ,42,9380360224942 ,95,8340435904992
9.3153169 ,Left ,65,1436496163836 ,42,7440077085804 ,95,8116326758068
9.3317832 ,Left ,64,9602872508934 ,42,60250989622 ,95,7292158276149
9.3542782 ,Left ,64,772018602584 ,42,4918957942492 ,95,6374268947475
9.3753431 ,Left ,64,58002908569 ,42,4311912754081 ,95,5687473597619
9.3910592 ,Left ,64,3786705957346 ,42,3920855800344 ,95,5150766147757
9.4144157 ,Left ,64,2322846842059 ,42,3502914884734 ,95,4885952592194
9.4354827 ,Left ,64,2072843757126 ,42,2565164837598 ,95,4271041330554
9.45194 ,Left ,64,1509489565832 ,42,2976126536373 ,95,3624307324138
9.4744035 ,Left ,64,0949746869494 ,42,3685169237686 ,95,3273263302345
9.495476 ,Left ,64,1042755527189 ,42,4647928318346 ,95,2805407626407
9.5119019 ,Left ,64,1265817224597 ,42,5848466760385 ,95,2124190801241
9.5343591 ,Left ,64,1198273397229 ,42,7155504727746 ,95,1380184360386
9.5556431 ,Left ,64,1190095409492 ,42,8651059880151 ,95,0830539901864
9.5719723 ,Left ,64,1423280036031 ,43,0261955619812 ,95,0402939152477
9.5943259 ,Left ,64,1381374915482 ,43,1756945902037 ,95,0199586254244
9.615194 ,Left ,64,1522595188587 ,43,2954605620762 ,95,0172589727609
9.631619 ,Left ,64,1632693403998 ,43,3769968470964 ,95,0286181657695
9.6539758 ,Left ,64,1621088567267 ,43,4189877475707 ,95,0657292268169
9.6749959 ,Left ,64,2265829656444 ,43,4979111867426 ,95,1340802064594
9.6908209 ,Left ,64,2259421145114 ,43,5187943248282 ,95,212390828389
9.7140547 ,Left ,64,3289228842294 ,43,4280970983751 ,95,3480373496724
9.7353292 ,Left ,64,4140869394311 ,43,4749189519988 ,95,4607268811054
9.7515893 ,Left ,64,4022977650411 ,43,6613499902019 ,95,5107306468838
9.7740539 ,Left ,64,5375207415806 ,43,8866224688658 ,95,4624550702717
9.7952524 ,Left ,64,7085647986589 ,44,0301227828841 ,95,3924579833247
9.8116215 ,Left ,64,8257728074593 ,44,0958979022914 ,95,3484484050037
9.8341682 ,Left ,64,8854725623714 ,44,1049899569916 ,95,322187781105
9.8553245 ,Left ,64,8615334965075 ,44,0170895167185 ,95,3181509656874
9.8709549 ,Left ,64,8325532563683 ,43,8455461045553 ,95,3410676872443
9.8943203 ,Left ,64,7925809943247 ,43,6397919969628 ,95,3963510082664
9.9154353 ,Left ,64,7876291405303 ,43,3916454277167 ,95,4673110367842
9.9312276 ,Left ,64,8458791291604 ,43,1758149334746 ,95,5126711586244
9.9543468 ,Left ,64,8926928467371 ,42,9796092685829 ,95,5195078640622
9.9768287 ,Left ,65,0046409727432 ,42,9200009728532 ,95,5212614593584
9.9911365 ,Left ,65,0661520065805 ,42,9999333768334 ,95,4926215078944
10.014325 ,Left ,65,0216493578199 ,43,0444524395363 ,95,4692459632177
10.036747 ,Left ,65,0877251030396 ,43,1357808692828 ,95,4461673145864
10.0519392 ,Left ,65,0759823358265 ,43,2781188682775 ,95,4638138619269
10.0743128 ,Left ,65,0035742276586 ,43,3987099130336 ,95,4882302802019
10.0968023 ,Left ,65,0718852616812 ,43,4424501628824 ,95,5393087806683
10.1113355 ,Left ,65,0830188007314 ,43,5292264901734 ,95,6890311778657
10.134342 ,Left ,65,0881931884586 ,43,7756394753201 ,95,7400359420348
10.1568778 ,Left ,65,0301119876772 ,43,9801118032165 ,95,7223512106743
10.1711075 ,Left ,65,0302778659798 ,44,0982609594872 ,95,7128638960081
10.1943309 ,Left ,65,0181331887542 ,44,2276989782829 ,95,7392051577822
10.2200989 ,Left ,64,9592535915971 ,44,3428751859864 ,95,7484694553652
10.2324034 ,Left ,64,8432101313111 ,44,328801661508 ,95,7762537978584
10.2528881 ,Left ,64,8388767521776 ,44,235986390214 ,95,8323064755506
10.2692561 ,Left ,64,9790029941815 ,44,2257881101263 ,95,8274975171636
10.2903588 ,Left ,64,8573743260005 ,44,1782599905324 ,95,9433463125827
10.3131013 ,Left ,64,7814063727962 ,44,4612556086862 ,95,9672757253628
10.3292638 ,Left ,64,9160713626933 ,44,7989912626462 ,95,8769933279784
10.3501529 ,Left ,64,8723412562407 ,44,8252663772184 ,95,8327325280399
10.3727748 ,Left ,64,9534318789096 ,45,0132324668169 ,95,7332223954704
10.3893067 ,Left ,65,1629356506377 ,45,1696860924501 ,95,5922603525801
10.4103089 ,Left ,65,2140778122152 ,45,1942562886045 ,95,5000371592608
10.4327328 ,Left ,65,1304232990233 ,45,2310450330915 ,95,4516527950317
10.4492652 ,Left ,65,1255843025466 ,45,1966207298871 ,95,3795704860968
10.470252 ,Left ,65,1655672039327 ,45,1112440784276 ,95,3159404724689
10.4929283 ,Left ,65,1232936266142 ,45,0145995915951 ,95,2586382407498
10.5093899 ,Left ,65,1154932401897 ,44,8772376152393 ,95,246774117183
10.5301005 ,Left ,65,2435975514536 ,44,7127587900848 ,95,2793630162187
10.5527598 ,Left ,65,4138777801157 ,44,8666934060553 ,95,2620640538252
10.5691553 ,Left ,65,2469189660277 ,44,7739172262408 ,95,2892973570072
10.5903041 ,Left ,65,3255817580093 ,44,8116399805369 ,95,2830539679324
10.6130582 ,Left ,65,4535360682488 ,44,5981799161742 ,95,25663843171
10.6291936 ,Left ,65,5789509712832 ,44,3287909066432 ,95,2200472688361
10.6503821 ,Left ,65,6634377937692 ,44,0142124104386 ,95,191926427541
10.6730518 ,Left ,65,6455266979523 ,43,7003727969372 ,95,1720629067302
10.689321 ,Left ,65,6829184930233 ,43,494588178841 ,95,1252623941252
10.7104951 ,Left ,65,6844833370543 ,43,260616630097 ,95,1245115241999
10.7329572 ,Left ,65,7623071810138 ,43,04879583467 ,95,2341390994846
10.7492137 ,Left ,65,8069280809228 ,43,0257013490883 ,95,3758878708898
10.7703952 ,Left ,65,8439052816706 ,43,2356372861237 ,95,4483567928474
10.7928801 ,Left ,65,8537136218733 ,43,4138599722003 ,95,5300802269235
10.809228 ,Left ,65,9677312523004 ,43,4726185991066 ,95,6227159917879
10.8302388 ,Left ,66,0353498319911 ,43,5078775051767 ,95,7212552587879
10.8528272 ,Left ,66,0369031889817 ,43,598976172444 ,95,7812796165692
10.8691488 ,Left ,66,0090588183454 ,43,6479290523854 ,95,7839442246318
10.8903092 ,Left ,65,9807905711689 ,43,5585830206696 ,95,7765162633101
10.9132487 ,Left ,65,9685354186177 ,43,3730124151659 ,95,7893363842975
10.9283821 ,Left ,65,9351274317347 ,43,2371350028894 ,95,7553959589002
10.9504218 ,Left ,65,8367023882305 ,43,1399255667873 ,95,6495230379389
10.972754 ,Left ,65,7469407372494 ,43,0959812502246 ,95,5248096406906
10.9884744 ,Left ,65,668157755119 ,43,0936190588641 ,95,4218422182878
11.0102642 ,Left ,65,6036721743768 ,43,0696692137377 ,95,3425774511106
11.0333215 ,Left ,65,6018384905737 ,43,0397191992254 ,95,2828818550837
11.0488644 ,Left ,65,5456220023637 ,43,0141879763094 ,95,2382184367418
11.0706155 ,Left ,65,4568115435995 ,42,9971605840894 ,95,2062955480837
11.0932707 ,Left ,65,3899828689868 ,43,0066511195162 ,95,182662332859
11.1169565 ,Left ,65,34359883401 ,43,055125929841 ,95,1609127735558
11.1394809 ,Left ,65,3126378747634 ,43,1322090400635 ,95,1197630348423
11.1537668 ,Left ,65,2880964040654 ,43,2173280145831 ,95,0671319673485
11.1769055 ,Left ,65,2830001265039 ,43,336959099962 ,95,006940994048
11.1995228 ,Left ,65,247636395308 ,43,5190865683682 ,94,9614483421996
11.2204404 ,Left ,65,225447876947 ,43,7207071389892 ,94,9327447592092
11.2368625 ,Left ,65,2283319883673 ,43,884235788979 ,94,9136362236494
11.2594185 ,Left ,65,2163383921767 ,43,991638833986 ,94,9314944460383
11.2806649 ,Left ,65,2060026774647 ,44,0449952751225 ,94,9751578125837
11.2970783 ,Left ,65,2028830644723 ,44,0558737379282 ,95,0452271817311
11.3194309 ,Left ,65,2153657390679 ,44,068258829283 ,95,1186394142467
11.3407267 ,Left ,65,2442541171106 ,43,9628061601568 ,95,1913254103168
11.357074 ,Left ,65,3503192706011 ,43,8129334459774 ,95,3000044972446
11.3794386 ,Left ,65,3637052422965 ,43,8135918279925 ,95,4003052478599
11.4009341 ,Left ,65,4021331073428 ,43,9665064268167 ,95,4232250390081
11.4169849 ,Left ,65,5171397586292 ,44,1121280205822 ,95,377156529435
11.439401 ,Left ,65,6353227052651 ,44,1719240668353 ,95,321011575045
11.4607006 ,Left ,65,7223504774714 ,44,1791184971475 ,95,2887863578074
11.4768685 ,Left ,65,7569269501568 ,44,1506825865258 ,95,2537196992748
11.4995815 ,Left ,65,7307948075462 ,44,0479257312493 ,95,2358923126832
11.5205742 ,Left ,65,7270298492195 ,43,9248347056171 ,95,205791608163
11.5369383 ,Left ,65,6558867008278 ,43,7444918867513 ,95,2175568010024
11.5594408 ,Left ,65,707266949769 ,43,522274623309 ,95,2445782352114
11.5806457 ,Left ,65,7833618444738 ,43,3420713612633 ,95,2891229969941
11.5964772 ,Left ,65,8572597445763 ,43,3516871885067 ,95,2889537013158
11.6192827 ,Left ,65,8047530657088 ,43,4276590006938 ,95,2554365862867
11.6402745 ,Left ,65,820142814657 ,43,5161285126339 ,95,2159135258089
11.6566413 ,Left ,65,8688677381406 ,43,6531810845354 ,95,2018213895534
11.6793778 ,Left ,65,7953270898472 ,43,7461472863341 ,95,253156075493
11.7002221 ,Left ,65,8194654719403 ,43,8067628466921 ,95,3298431515529
11.716815 ,Left ,65,7910419478505 ,43,8855062727626 ,95,4868980062686
11.7393532 ,Left ,65,8038263774856 ,44,0924578470863 ,95,5551338701297
11.7606012 ,Left ,65,7781947522259 ,44,279206436554 ,95,5611899519217
11.7763124 ,Left ,65,7279922366819 ,44,5055632987191 ,95,549746614409
11.7994534 ,Left ,65,6933835761223 ,44,7091037577963 ,95,538174067399
11.8219152 ,Left ,65,647927931683 ,44,8090175511745 ,95,5392241131183
11.836242 ,Left ,65,499747676455 ,44,739828789165 ,95,600820797103
11.8596765 ,Left ,65,3806611447053 ,44,6140826808643 ,95,7512982618895
11.8821364 ,Left ,65,3903311554872 ,44,4924548246337 ,95,8527731967367
11.8962574 ,Left ,65,4333694430441 ,44,4227630274168 ,95,9570715311909
11.9193508 ,Left ,65,4249777019279 ,44,554154660602 ,96,0419908723332
11.9420449 ,Left ,65,3588947504419 ,44,7499023742414 ,96,1294552805477
11.9562649 ,Left ,65,4546639723824 ,44,9328230553225 ,96,2298053993921
11.9794801 ,Left ,65,6591384128149 ,45,1272983994138 ,96,3268937089818
12.0017863 ,Left ,65,8092369562437 ,45,3274948363746 ,96,4426993192378
12.0162189 ,Left ,65,8502603899483 ,45,5265548806036 ,96,5738790220431
12.0393939 ,Left ,65,9130694521491 ,45,7268311472287 ,96,6731170181774
12.0618237 ,Left ,66,0240169537197 ,45,9013032434949 ,96,7382007598999
12.0761594 ,Left ,66,1778489132074 ,46,0270914192406 ,96,7701758383235
12.0992594 ,Left ,66,2741454286123 ,46,0371515949226 ,96,7821714855962
12.1218233 ,Left ,66,351648556971 ,45,9152241919728 ,96,7929333529812
12.1429022 ,Left ,66,4176088959315 ,45,7028379930273 ,96,79252085872
12.1593295 ,Left ,66,5161592480246 ,45,5042003997363 ,96,7265367315962
12.1820073 ,Left ,66,5589160548057 ,45,3495381567929 ,96,6033882914008
12.20297 ,Left ,66,6128451448808 ,45,2625714421888 ,96,4456303477021
12.2193729 ,Left ,66,6872900087493 ,45,2417384598242 ,96,2862637455955
12.2419763 ,Left ,66,7101261513861 ,45,2436541572498 ,96,129298090008
12.2628223 ,Left ,66,7364892511709 ,45,2282352361826 ,95,9623577960051
12.279846 ,Left ,66,7108351898857 ,45,2041985504527 ,95,8270280608291
12.2955486 ,Left ,66,6418152613136 ,45,179193724686 ,95,7548418279948
12.3152168 ,Left ,66,5513604260239 ,45,187231868907 ,95,6998009892078
12.3310113 ,Left ,66,3632946255817 ,45,1575062891678 ,95,6530093561655
12.3545005 ,Left ,66,2005246030189 ,45,1839821545904 ,95,6310467379465
12.3757158 ,Left ,66,1004186811605 ,44,9300911640785 ,95,627555844803
12.3912701 ,Left ,66,2045814710381 ,44,752076426685 ,95,6040136696507
12.414376 ,Left ,66,2755481701207 ,44,7592536127931 ,95,5291016130377
12.4355265 ,Left ,66,4016523295058 ,44,7328641352676 ,95,4321659757042
12.4509614 ,Left ,66,5833575646572 ,44,6092087936296 ,95,3402890861034
12.4740544 ,Left ,66,7160539160472 ,44,4017814811144 ,95,2506459302483
12.4966152 ,Left ,66,8555355159465 ,44,0985488734083 ,95,1706531932085
12.5111814 ,Left ,66,9626519955353 ,43,7260006223507 ,95,0809861372865
12.5342991 ,Left ,67,055894169824 ,43,3718614218834 ,94,9988898789972
12.5555861 ,Left ,67,045210268524 ,43,0304049849014 ,94,9727309649853
12.5711459 ,Left ,67,0549051755075 ,42,6262924845894 ,94,9919838754016
12.5943371 ,Left ,67,1516076496411 ,42,3082469829358 ,95,0745887247897
12.6154089 ,Left ,67,0750278786018 ,42,1730651432048 ,95,1540700500852
12.6311675 ,Left ,66,9467718050983 ,42,2699057440393 ,95,2540883796257
12.6542951 ,Left ,66,9441116543437 ,42,3991994742938 ,95,3394916990908
12.6757961 ,Left ,66,9645539177862 ,42,4660083162191 ,95,4247136771686
12.691138 ,Left ,67,0206089815912 ,42,5035998738888 ,95,489324612798
12.7143171 ,Left ,66,9553527156109 ,42,5114923086836 ,95,5722673568975
12.7354657 ,Left ,66,8973062513786 ,42,5536705860946 ,95,5948501383357
12.7511645 ,Left ,66,845884665898 ,42,5619748158912 ,95,5165670848979
12.7743053 ,Left ,66,8426217524842 ,42,4763709786279 ,95,3800380801689
12.7953256 ,Left ,66,7887902840679 ,42,3417452220032 ,95,2740049580468
12.8109629 ,Left ,66,7595161439023 ,42,2286844506821 ,95,1886414189778
12.8334309 ,Left ,66,6895013499709 ,42,1677158238995 ,95,0898956926302
12.8551504 ,Left ,66,5733916811542 ,42,1559302510483 ,94,9953017675839
12.8709643 ,Left ,66,4962092091401 ,42,1792323068747 ,94,8973441337332
12.8933881 ,Left ,66,437500487982 ,42,1775769155866 ,94,8096946757249
12.9152246 ,Left ,66,4186766254096 ,42,193157995369 ,94,7355424704392
12.931414 ,Left ,66,373084195832 ,42,2519324861074 ,94,6637715892895
12.954041 ,Left ,66,2557310668457 ,42,3319083719738 ,94,6096747175414
12.975598 ,Left ,66,179259214708 ,42,4532882068097 ,94,563926650603
12.9914207 ,Left ,66,114166681091 ,42,6087294949798 ,94,5250984432637
13.0139725 ,Left ,66,0699139750585 ,42,7852644367395 ,94,4916532853177
13.0369809 ,Left ,66,0238801635891 ,42,9958467799435 ,94,4638773435005
13.0512031 ,Left ,65,9614763698489 ,43,218158596881 ,94,4417464638759
13.0737221 ,Left ,65,9084621303065 ,43,3988314454959 ,94,4312212745069
13.0968498 ,Left ,65,9001039174761 ,43,5169185130122 ,94,4283784913449
13.1113271 ,Left ,65,8878617981579 ,43,5854853666711 ,94,4795225973329
13.1337596 ,Left ,65,8961424149576 ,43,7000381389568 ,94,5433765466758
13.1568461 ,Left ,65,847547699086 ,43,6429553360955 ,94,6473070411459
13.1854254 ,Left ,65,9831096181599 ,43,4667234706757 ,94,7893901886582
13.2018282 ,Left ,65,9801105806484 ,43,4403640198628 ,94,9017230722602
13.2244466 ,Left ,65,9117511005911 ,43,5533135731491 ,94,9693972937565
13.2456039 ,Left ,66,079219964563 ,43,7008002398354 ,94,9485039223771
13.2618311 ,Left ,66,2453224042822 ,43,7952872621415 ,94,9011980160793
13.284149 ,Left ,66,3001899966952 ,43,8023409054163 ,94,8760153481469
13.3053485 ,Left ,66,3444374019991 ,43,763017871961 ,94,8445695261013
13.3216413 ,Left ,66,3385567511723 ,43,6534560648444 ,94,8121447284256
13.3446616 ,Left ,66,2801396755072 ,43,5085820387265 ,94,7920040971683
13.3657336 ,Left ,66,2432163285927 ,43,394065978427 ,94,7785194575128
13.3819564 ,Left ,66,2532222311112 ,43,1993981065391 ,94,791202889624
13.4045929 ,Left ,66,2065943425015 ,42,9659006183514 ,94,853999232419
13.4257229 ,Left ,66,2578837315984 ,42,8497008797405 ,94,933661687272
13.4420502 ,Left ,66,2902668279051 ,42,9188907915021 ,94,9652213561841
13.4644235 ,Left ,66,2896747246344 ,43,0105377990737 ,94,9351550622643
13.4855886 ,Left ,66,3213294521489 ,43,0572602533709 ,94,9074556966921
13.5019068 ,Left ,66,3789397570396 ,43,1306621597913 ,94,9023386696975
13.5243039 ,Left ,66,3107080727428 ,43,1976925112113 ,94,9700054742561
13.5454153 ,Left ,66,1951526354859 ,43,2238268153976 ,95,0447774236751
13.5617163 ,Left ,66,2619084695999 ,43,2361851243961 ,95,0920033529048
13.5855189 ,Left ,66,1900993908187 ,43,3003233504136 ,95,2216969054055
13.6053907 ,Left ,66,1651115846702 ,43,4604035275448 ,95,2883010902003
13.6218775 ,Left ,66,1027097684315 ,43,5951897575765 ,95,2983922982092
13.6442227 ,Left ,66,0670544323578 ,43,7877354687961 ,95,3058490143299
13.6653096 ,Left ,66,057705247946 ,43,9800759479086 ,95,2754140213574
13.6811089 ,Left ,65,9978592407016 ,44,0809936141404 ,95,2898889839159
13.7042672 ,Left ,65,8564438586212 ,44,1247923290598 ,95,4095371611853
13.7253928 ,Left ,65,8048851668664 ,44,0746835588582 ,95,5671836012402
13.7412133 ,Left ,65,81148800094 ,44,0181969337397 ,95,6888146131088
13.7643886 ,Left ,65,7689162826264 ,44,1622691710497 ,95,7667507694527
13.7868957 ,Left ,65,6859602992113 ,44,3979305154608 ,95,766314537327
13.8011788 ,Left ,65,7200566907051 ,44,622911641864 ,95,7192298484157
13.8242059 ,Left ,65,845592726936 ,44,8080055923386 ,95,6653174597604
13.8467082 ,Left ,65,8966170883753 ,44,9066023717405 ,95,6136072130429
13.8611019 ,Left ,65,8327337069723 ,45,0145296657312 ,95,5805276198835
13.8842732 ,Left ,65,7536344707382 ,45,0814359425012 ,95,5404561404291
13.9068246 ,Left ,65,7285407662564 ,45,0528512360332 ,95,4918918448554
13.9209377 ,Left ,65,6953356036596 ,44,9212088263337 ,95,4471159474134
13.9442859 ,Left ,65,6621565521537 ,44,8190565968937 ,95,3936063368284
13.9665765 ,Left ,65,6542697872191 ,44,7056125343399 ,95,3069618496829
13.9812292 ,Left ,65,6922684496945 ,44,5753977845868 ,95,2218787936657
14.0042945 ,Left ,65,7510061984069 ,44,5428049010937 ,95,1808500464883
14.0267789 ,Left ,65,7310098093374 ,44,5907302856697 ,95,1526698140184
14.0481624 ,Left ,65,776388954037 ,44,5827704515581 ,95,129170292144
14.0643193 ,Left ,65,8914884190806 ,44,4662400562752 ,95,0879796621099
14.0867958 ,Left ,66,0470790025233 ,44,2037765266361 ,95,0281722711827
14.1082227 ,Left ,66,1155224744628 ,43,8867521589016 ,94,9883543143606
14.1244046 ,Left ,66,1156441590815 ,43,653467774303 ,94,9662174319967
14.1467902 ,Left ,66,1199486967128 ,43,5086530855495 ,94,922235423187
14.1681134 ,Left ,66,1216321567055 ,43,3125992378683 ,94,920914545077
14.1841329 ,Left ,66,216892685486 ,43,0842607007395 ,95,008280854829
14.2068602 ,Left ,66,2828540107371 ,43,0468956346908 ,95,1391422337537
14.2278485 ,Left ,66,1979415965122 ,43,2354498555322 ,95,2163891447449
14.2445444 ,Left ,66,1824186306461 ,43,4296880061962 ,95,294363682283
14.2668655 ,Left ,66,275997618148 ,43,5391381477825 ,95,3746774205958
14.28789 ,Left ,66,3276188135476 ,43,5581458313937 ,95,4547230089456
14.3042222 ,Left ,66,3111392185515 ,43,5834593853002 ,95,5149137583443
14.3267548 ,Left ,66,2310285544384 ,43,5969822376058 ,95,5376419922603
14.3476869 ,Left ,66,2186787425413 ,43,5406668133792 ,95,5203305048124
14.3643868 ,Left ,66,2329299194009 ,43,381424556957 ,95,5001998233242
14.3866411 ,Left ,66,2248491443462 ,43,2161319831755 ,95,4722965481804
14.4075728 ,Left ,66,1627545665481 ,43,0976721266425 ,95,3978526957296
14.4241071 ,Left ,66,1194301539842 ,43,0139110466645 ,95,2758641773968
14.4464988 ,Left ,66,0875917395828 ,42,9841954109358 ,95,1753926709642
14.467653 ,Left ,65,9957963780184 ,42,9693887742724 ,95,1046736450688
14.4840842 ,Left ,65,9595874879435 ,42,9460021164906 ,95,0306364225739
14.5065431 ,Left ,65,9290691876714 ,42,9105311259858 ,94,9572086321349
14.5276038 ,Left ,65,8515886566913 ,42,9017720332342 ,94,900716713985
14.5433568 ,Left ,65,7685477238312 ,42,9378841151809 ,94,8514120338779
14.5671106 ,Left ,65,6738637894842 ,42,9949062199911 ,94,8232850376342
14.5879141 ,Left ,65,6384272304935 ,43,0897560848161 ,94,78041107567
14.6036837 ,Left ,65,5822901001961 ,43,1975061806273 ,94,7186299649666
14.6266709 ,Left ,65,5214025543382 ,43,3252528610669 ,94,6525457225253
14.6479532 ,Left ,65,4837474079365 ,43,4749291662725 ,94,5952592196379
14.6636463 ,Left ,65,4293331946479 ,43,6444903146044 ,94,5691223897857
14.6869555 ,Left ,65,4033941829266 ,43,8204207625298 ,94,560716445347
14.7092716 ,Left ,65,4079006344378 ,43,9782960296568 ,94,5689144919834
14.7237025 ,Left ,65,4122219313396 ,44,078902208588 ,94,5851034506859
14.7467907 ,Left ,65,3970343415563 ,44,1147726008553 ,94,6123950170244
14.7693133 ,Left ,65,4006689224262 ,44,1795328240496 ,94,6857123200525
14.7836617 ,Left ,65,329515982901 ,44,1871894464761 ,94,8116803750461
14.8068385 ,Left ,65,4455668199438 ,44,0363382108307 ,94,9530707179497
14.8295849 ,Left ,65,5663474094651 ,43,9463637271334 ,95,1030794162378
14.8438658 ,Left ,65,5300153909649 ,44,018124781099 ,95,1888398892646
14.8668 ,Left ,65,6430410486958 ,44,1693747190681 ,95,1748310991534
14.8893738 ,Left ,65,7714420548453 ,44,279967241877 ,95,0996933907833
14.9036101 ,Left ,65,8616761194257 ,44,3045116629366 ,95,0230560755492
14.9267584 ,Left ,65,9372390971159 ,44,2830061466413 ,94,9626196830196
14.9493693 ,Left ,65,9343569727804 ,44,2105863361471 ,94,9237518931566
14.9547111 ,Left ,65,9134377546402 ,44,0836526794121 ,94,9069370469539
14.97261 ,Left ,65,9095929666781 ,43,9228119595683 ,94,9165893207116
14.992188 ,Left ,65,8809747091434 ,43,6833662870664 ,94,9804496776893
15.0145933 ,Left ,65,9142139484626 ,43,4893450045068 ,95,0518581414512
15.0324723 ,Left ,65,9919303407464 ,43,4821047009575 ,95,1031049893221
15.0519602 ,Left ,66,0229287024727 ,43,6213155987203 ,95,0848330679811
15.0745155 ,Left ,65,9782195407622 ,43,6904211197056 ,95,0515013344293
15.0924217 ,Left ,66,0311161675083 ,43,7476651439026 ,95,0581017076793
15.1120853 ,Left ,66,0748568633642 ,43,8617102131572 ,95,0928971350862
15.1347541 ,Left ,65,9687318108172 ,43,9324678219044 ,95,1515333869177
15.1511538 ,Left ,65,9489253123618 ,43,9050242123257 ,95,1842078741369
15.1724053 ,Left ,66,0110387123027 ,43,924538519689 ,95,2931295240561
15.1947993 ,Left ,65,9729440487145 ,44,0803314936908 ,95,3589815862278
15.2172372 ,Left ,65,8970053393801 ,44,1870509402112 ,95,3516708472073
15.2322955 ,Left ,65,9065776506796 ,44,3165574563376 ,95,3476487920306
15.2546554 ,Left ,65,895513111625 ,44,4855296131971 ,95,3801756821832
15.2773859 ,Left ,65,8543204788643 ,44,5457879641039 ,95,4103229165255
15.2922335 ,Left ,65,7749608383768 ,44,4979748019728 ,95,4938893591842
15.3147534 ,Left ,65,6918356438513 ,44,4558391398871 ,95,5980600649997
15.3372028 ,Left ,65,6230713753861 ,44,3881614776838 ,95,7141214642544
15.3519669 ,Left ,65,7044361539222 ,44,5353946641233 ,95,8200429162211
15.3744444 ,Left ,65,6512510727484 ,44,8325098177781 ,95,8457110313962
15.3973607 ,Left ,65,6134925249243 ,45,0538648001072 ,95,8105639031354
15.4122334 ,Left ,65,7185815911376 ,45,1947545715974 ,95,7253060270691
15.434718 ,Left ,65,813469893131 ,45,3084615531626 ,95,6490827040753
15.4571074 ,Left ,65,751837205007 ,45,3578378441007 ,95,5959411416984
15.4721724 ,Left ,65,6855515776862 ,45,401762342729 ,95,5302602537599
15.494815 ,Left ,65,6467032193901 ,45,3791907162121 ,95,446456552021
15.5171613 ,Left ,65,6289513057728 ,45,2698596686838 ,95,374094041636
15.5323925 ,Left ,65,5675878469304 ,45,1419177409389 ,95,3316618305678
15.5545549 ,Left ,65,5528536212705 ,45,0315131218241 ,95,2918524459203
15.5774119 ,Left ,65,5488596188322 ,44,8699956214151 ,95,2681824629721
15.5922998 ,Left ,65,6078593214089 ,44,7695107958311 ,95,2797281191295
15.6147952 ,Left ,65,5567574501266 ,44,8197329158126 ,95,2781391488525
15.6327307 ,Left ,65,557275484078 ,44,8549733366549 ,95,267376071446
15.6519214 ,Left ,65,6943186556063 ,44,8007542526665 ,95,2430483420628
15.674515 ,Left ,65,8766431198043 ,44,6458899268893 ,95,1961449954806
15.6972343 ,Left ,65,9768429484217 ,44,405670753318 ,95,1466504999135
15.7136546 ,Left ,66,0157225962714 ,44,1108177494171 ,95,1258574530598
15.7348468 ,Left ,66,0000813072445 ,43,8618845225936 ,95,1121232315956
15.7574366 ,Left ,66,0163423944706 ,43,7331666065056 ,95,0357129425043
15.7737132 ,Left ,66,0096060274599 ,43,5289752531032 ,95,0200086767429
15.7944041 ,Left ,66,1327190884023 ,43,2998664122831 ,95,1090071517718
15.8171347 ,Left ,66,2429681898856 ,43,2778216797292 ,95,2318577117428
15.8336695 ,Left ,66,2267241794722 ,43,4642381749327 ,95,2806409716335
15.8546213 ,Left ,66,2281793339454 ,43,6245815790186 ,95,3693103337142
15.8770037 ,Left ,66,3501399884241 ,43,7134708577996 ,95,4497018151987
15.8921921 ,Left ,66,3976474236268 ,43,757134579378 ,95,5265062656033
15.914629 ,Left ,66,3903715691413 ,43,8246347873277 ,95,5649155071562
15.9372622 ,Left ,66,3349066828122 ,43,8403545075969 ,95,5801101590574
15.953798 ,Left ,66,3318246156274 ,43,7426909681468 ,95,5408929270233
15.9749524 ,Left ,66,3278755339257 ,43,5245135094842 ,95,5166957161007
15.997551 ,Left ,66,2831183178512 ,43,3362176108719 ,95,4691932933332
16.0123869 ,Left ,66,2376589672863 ,43,2024546795578 ,95,3631632494272
16.0345707 ,Left ,66,1873097081983 ,43,1104281868862 ,95,234674125217
16.0570527 ,Left ,66,1016622470067 ,43,0636434566475 ,95,1413298506693
16.0735402 ,Left ,66,02758711935 ,43,0529858463613 ,95,0725152319498
16.0946305 ,Left ,65,9758163419498 ,43,0683299577216 ,94,9906121979336
16.117942 ,Left ,65,9162350917712 ,43,0850369575256 ,94,913710901421
16.1354197 ,Left ,65,8362185585267 ,43,1108533815039 ,94,8709377204068
16.1551239 ,Left ,65,7330310968363 ,43,1580097733478 ,94,8565354998624
16.1777992 ,Left ,65,6598531989514 ,43,2554164065271 ,94,8552439761217
16.1927641 ,Left ,65,6049420537102 ,43,3753919514544 ,94,824316855125
16.2149145 ,Left ,65,5727847545862 ,43,4835986354801 ,94,79531743027
16.2371936 ,Left ,65,5558718348955 ,43,6199577914779 ,94,7577491637433
16.2536174 ,Left ,65,4905684248246 ,43,8052014274642 ,94,7176236163842
16.2748419 ,Left ,65,4516749248925 ,43,994274820796 ,94,6764318206134
16.2974327 ,Left ,65,4836029989938 ,44,1466759035798 ,94,6394382082479
16.3136383 ,Left ,65,4694092375418 ,44,2226009799235 ,94,6285591710131
16.3346557 ,Left ,65,4544646055877 ,44,2267857905049 ,94,6545530638541
16.3574259 ,Left ,65,462073387496 ,44,2831984221432 ,94,7216910516064
16.3737177 ,Left ,65,4232465549488 ,44,2454683219151 ,94,7772378254289
16.3947406 ,Left ,65,5313942903667 ,44,0877790296515 ,94,8666563586814
16.4254889 ,Left ,65,5694490499897 ,44,0365548256443 ,94,9492514012879
16.4337092 ,Left ,65,5382387773438 ,44,1628839892584 ,94,9778722329657
16.4546971 ,Left ,65,6901117453532 ,44,3086105162324 ,94,9324788589762
16.4770003 ,Left ,65,8647236508836 ,44,3889559797628 ,94,8709962679806
16.4936332 ,Left ,65,9156198991636 ,44,4090418812074 ,94,8523854473766
16.5146615 ,Left ,65,9282480520787 ,44,3800756283182 ,94,8519042923095
16.5373697 ,Left ,65,894659655837 ,44,2893004997858 ,94,8528965587263
16.5551486 ,Left ,65,8786656517179 ,44,1655502130785 ,94,8571955041178
16.5747388 ,Left ,65,8643584955958 ,44,0229499277883 ,94,8665994520091
16.5973989 ,Left ,65,852149807013 ,43,7986736223381 ,94,9347236034208
16.6149921 ,Left ,65,829773035476 ,43,5748014452016 ,95,0323300261727
16.6346939 ,Left ,65,9217293731708 ,43,5063702179884 ,95,0733762188212
16.6573418 ,Left ,65,9154927514688 ,43,5272202900085 ,95,0597134715798
16.6752124 ,Left ,65,8954001599415 ,43,5523282344146 ,95,0277557527849
16.6947867 ,Left ,65,9304086391671 ,43,6378263607432 ,95,0143259417843
16.7173847 ,Left ,65,9413230462217 ,43,7657273487472 ,95,0332189639397
16.7351088 ,Left ,65,8478955071961 ,43,8126087357535 ,95,0590007625198
16.7546701 ,Left ,65,8968096447982 ,43,8038659111145 ,95,1158405631108
16.7776952 ,Left ,65,9015155242634 ,43,8127309829361 ,95,245401606574
16.7954384 ,Left ,65,901757683127 ,43,9260157218121 ,95,2812266907449
16.815255 ,Left ,65,7910384193168 ,44,0179461836366 ,95,2814370955743
16.8375859 ,Left ,65,7597701736698 ,44,2034588877669 ,95,2677390754356
16.8551302 ,Left ,65,7679273663794 ,44,3561143536612 ,95,2673242878762
16.8746257 ,Left ,65,6682762956946 ,44,4551885433722 ,95,3361672682051
16.8973486 ,Left ,65,5330059217365 ,44,4708807839239 ,95,4698571699056
16.9149446 ,Left ,65,5868073376532 ,44,3946517584904 ,95,5654456807016
16.9347195 ,Left ,65,6846604968371 ,44,5013932775925 ,95,6860388483558
16.9573349 ,Left ,65,5378421007185 ,44,833593942282 ,95,7101606636589
16.9750905 ,Left ,65,4220660186593 ,45,1340044671687 ,95,7060731187323
16.9945384 ,Left ,65,5132787514662 ,45,3491830159029 ,95,6988376654254
17.0171074 ,Left ,65,6174272316335 ,45,5093438072736 ,95,6775265029223
17.0348567 ,Left ,65,551623896573 ,45,6718135383021 ,95,6490354201122
17.0546876 ,Left ,65,4963402847831 ,45,8163164895889 ,95,5766529324603
17.0774568 ,Left ,65,4757394867452 ,45,9190831244035 ,95,4971837361946
17.0952259 ,Left ,65,4442163427545 ,45,9682718628818 ,95,41437442026
17.1162435 ,Left ,65,4292178206574 ,45,962431317205 ,95,3222496854206
17.1370189 ,Left ,65,3778219730323 ,45,8629381965 ,95,2122783057627
17.1551243 ,Left ,65,3280103709275 ,45,7035958968866 ,95,1214618226315
17.1761384 ,Left ,65,3012719744573 ,45,502387165071 ,95,0850402768414
17.1974294 ,Left ,65,2602243503383 ,45,2681928580077 ,95,0843955026458
17.2148913 ,Left ,65,3133485976148 ,45,0227085722472 ,95,1018748465196
17.2360113 ,Left ,65,4033420022568 ,44,9707343517459 ,95,1095673963762
17.2571689 ,Left ,65,3752488479648 ,44,9824353831445 ,95,1139504680306
17.2751083 ,Left ,65,4647093184723 ,44,9677453367213 ,95,1151103232452
17.2963771 ,Left ,65,6713813546548 ,44,9041868116841 ,95,1246487287984
17.3174731 ,Left ,65,8559344904482 ,44,8565933038436 ,95,138575127069
17.3352858 ,Left ,65,9701470700381 ,44,7884620250237 ,95,1595883429582
17.356245 ,Left ,66,0465267934545 ,44,6979435591993 ,95,165245187728
17.3775064 ,Left ,66,1110269295894 ,44,5605023140348 ,95,1398381980885
17.3986609 ,Left ,66,1530193101808 ,44,3389320496018 ,95,1122908924318
17.4148099 ,Left ,66,1547441411505 ,44,0370896044282 ,95,0988486238276
17.4371985 ,Left ,66,1513665087413 ,43,8168561514326 ,95,1269663655154
17.4522989 ,Left ,65,9532240131768 ,43,491162385305 ,95,22913662956
17.4748301 ,Left ,65,7564774067626 ,43,0490062635253 ,95,3596956603142
17.4972827 ,Left ,65,8075637215866 ,42,8573042400104 ,95,4985340526713
17.512405 ,Left ,66,1583802087605 ,43,0263544052446 ,95,43033289536
17.5347926 ,Left ,66,0694952020936 ,43,1340322046123 ,95,5145741486682
17.5572975 ,Left ,66,1648243211602 ,43,4195045512568 ,95,587077924789
17.5736948 ,Left ,66,547971054404 ,43,7463764128646 ,95,5834280016048
17.5947353 ,Left ,66,6545069818362 ,43,8019940601483 ,95,6819201088336
17.6173376 ,Left ,66,7180988919446 ,43,9529560448805 ,95,7579898046013
17.633764 ,Left ,66,729967471626 ,44,0630760396821 ,95,7832538354093
17.6547496 ,Left ,66,7131164149143 ,44,0995225239996 ,95,7801103607724
17.6773739 ,Left ,66,7026850570938 ,44,0525897695039 ,95,7840896178894
17.6936029 ,Left ,66,7025582812968 ,43,9079801459842 ,95,7957335686393
17.714762 ,Left ,66,6742945656877 ,43,6725362556794 ,95,7674345593319
17.7374978 ,Left ,66,4700961436378 ,43,3519709180131 ,95,7605853083899
17.7537396 ,Left ,66,4811345368733 ,43,0917984597283 ,95,6832557074086
17.774785 ,Left ,66,4496817976146 ,42,9768518543976 ,95,6520598068364
17.7971561 ,Left ,66,4247255474073 ,42,8725943832568 ,95,6140838754165
17.8137386 ,Left ,66,3683259750146 ,42,8073401040289 ,95,572831628063
17.8347887 ,Left ,66,3514209202355 ,42,7547748252731 ,95,5173787648168
17.8574056 ,Left ,66,3613618155447 ,42,6967353213806 ,95,4680419491853
17.8736477 ,Left ,66,3043899616306 ,42,6633440144377 ,95,4324842673884
17.8946989 ,Left ,66,1727723284223 ,42,6389429837061 ,95,3954946791629
17.9173432 ,Left ,66,0954352054676 ,42,6281419473458 ,95,3470840606387
17.9336757 ,Left ,66,0494234661048 ,42,613958262947 ,95,2966883812044
17.9546673 ,Left ,66,0184596099534 ,42,5842487377959 ,95,2491978250026
17.9770214 ,Left ,65,9291871855473 ,42,5761382252304 ,95,2026768331446
17.993667 ,Left ,65,8358796697231 ,42,5845647638328 ,95,1323907185669
18.0145614 ,Left ,65,7616197280383 ,42,5782713888726 ,95,0677874810154
18.0370006 ,Left ,65,6904729046183 ,42,5518234133941 ,95,0100182651369
18.0537155 ,Left ,65,6278551425628 ,42,5256215522931 ,94,960933669645
18.0747068 ,Left ,65,5734427610101 ,42,5382654377363 ,94,909134683315
18.0973515 ,Left ,65,5170205351123 ,42,5922494239615 ,94,8395829246196
18.1138452 ,Left ,65,4604076108845 ,42,6684956697305 ,94,7525719992385
18.1345829 ,Left ,65,3998256256355 ,42,7486989868252 ,94,6656032008091
18.157252 ,Left ,65,3407788342329 ,42,8754167125408 ,94,5824668043495
18.1798225 ,Left ,65,2516588559209 ,43,0346530312353 ,94,5133854048656
18.1946779 ,Left ,65,1868550785931 ,43,2145448083597 ,94,4646803748473
18.2172256 ,Left ,65,1109845848719 ,43,4001598541807 ,94,4484272605741
18.2398907 ,Left ,65,047914310809 ,43,5573009798234 ,94,4530175651459
18.2545973 ,Left ,64,9746196678786 ,43,6369573031543 ,94,4915277081787
18.2773234 ,Left ,64,9819272841467 ,43,7090713311277 ,94,5622219896059
18.299802 ,Left ,64,975299115755 ,43,76891796949 ,94,6321337482084
18.3175293 ,Left ,64,9616248751063 ,43,6936313903623 ,94,7339344022705
18.338586 ,Left ,65,0808814732828 ,43,6301649354437 ,94,8659858903415
18.3594669 ,Left ,65,0768136516398 ,43,7448450258249 ,94,9734828884946
18.3774535 ,Left ,65,1916965970288 ,43,9907100426862 ,94,9812420096688
18.3987183 ,Left ,65,3484262341136 ,44,1616916909264 ,94,9475804182496
18.4197338 ,Left ,65,4884483926549 ,44,2552594098369 ,94,9166212113068
18.4377006 ,Left ,65,5934141225727 ,44,263410365698 ,94,9005733903894
18.4586636 ,Left ,65,641317754599 ,44,1871668487852 ,94,8710372743712
18.4799888 ,Left ,65,6445214434745 ,44,0249408512956 ,94,8635755499505
18.4977522 ,Left ,65,6533428513169 ,43,8294734226716 ,94,8804816127443
18.5202674 ,Left ,65,6520118997691 ,43,6048009258201 ,94,920941282127
18.540778 ,Left ,65,7068480494854 ,43,3774319288652 ,94,9576146120086
18.5568704 ,Left ,65,7673746870174 ,43,193179904435 ,95,0042046449937
18.5793601 ,Left ,65,8336682394843 ,43,203988858635 ,95,0516544318877
18.60072 ,Left ,65,8286989186876 ,43,2722708416537 ,95,0500211423326
18.6169226 ,Left ,65,849115145748 ,43,3254466981846 ,95,0479820212678
18.6394015 ,Left ,65,8914163304819 ,43,4467998785206 ,95,0778838142591
18.6604549 ,Left ,65,881674713401 ,43,560006655969 ,95,1232592282472
18.6766193 ,Left ,65,9165162748284 ,43,6124582511187 ,95,2168522016387
18.7006484 ,Left ,65,9511134763029 ,43,7886912397464 ,95,3479781984236
18.7201763 ,Left ,65,9992747333208 ,44,0441520482073 ,95,4032151146563
18.736709 ,Left ,65,9705275988357 ,44,2021116558549 ,95,4083028190711
18.7594553 ,Left ,65,91881622347 ,44,4208027859431 ,95,4395869553859
18.780524 ,Left ,65,8747366497647 ,44,6119645549712 ,95,4786485324832
18.7968241 ,Left ,65,7501592110555 ,44,6816208181161 ,95,5393594852395
18.8192568 ,Left ,65,6223819717462 ,44,6305827927221 ,95,6563430415753
18.8404874 ,Left ,65,6230704825097 ,44,5279588849175 ,95,7487816588416
18.8568417 ,Left ,65,6248800762857 ,44,4058502283984 ,95,7905935503463
18.8793594 ,Left ,65,6045595226608 ,44,5565604833799 ,95,7626150969117
18.9006114 ,Left ,65,4812462278468 ,44,7580077416879 ,95,6701800849986
18.9168652 ,Left ,65,5137340855056 ,44,918731179889 ,95,550962668779
18.9395132 ,Left ,65,6009747483915 ,45,046254840831 ,95,4327476409238
18.9606518 ,Left ,65,611087949024 ,45,1535910507232 ,95,3146941913078
18.9770992 ,Left ,65,5912301780015 ,45,208047446605 ,95,211091686636
18.9993218 ,Left ,65,5122645761276 ,45,2312395126775 ,95,1725809413814
19.0206316 ,Left ,65,463213410334 ,45,223643092962 ,95,1046678866956
19.0367521 ,Left ,65,4469087771361 ,45,0990698100878 ,95,0517484911527
19.059237 ,Left ,65,446271685155 ,44,9334950169497 ,95,0498642708202
19.0801823 ,Left ,65,4690506677301 ,44,8620636928561 ,95,0633697017819
19.0967245 ,Left ,65,4992829489883 ,44,8719053584049 ,95,0393756113423
19.1193506 ,Left ,65,6341908757911 ,44,8071614838479 ,95,0059290081825
19.140146 ,Left ,65,8331589267391 ,44,6160002101351 ,94,9801076205571
19.1566914 ,Left ,65,9007686092766 ,44,4125258964949 ,94,9847911344675
19.1794172 ,Left ,65,8825568476441 ,44,21487917158 ,94,9625344329093
19.2017392 ,Left ,65,968746477006 ,44,0106205838027 ,94,8974543092865
19.2160872 ,Left ,66,0390503590169 ,43,7836599061352 ,94,8761735583483
19.2393558 ,Left ,66,0896176434312 ,43,4531690094947 ,94,9845063254856
19.2618048 ,Left ,66,1847843765251 ,43,2140445605511 ,95,1635110587589
19.2761371 ,Left ,66,1697552484339 ,43,3015625235501 ,95,2663526086096
19.2991326 ,Left ,66,125562884136 ,43,5090233018678 ,95,3171832093435
19.3220172 ,Left ,66,1926358709973 ,43,625417313231 ,95,3915973905963
19.3361153 ,Left ,66,2674412522159 ,43,627890282294 ,95,4693526789929
19.3593337 ,Left ,66,3214901655278 ,43,6872533886854 ,95,5135228204763
19.3817243 ,Left ,66,3170312625837 ,43,6930843240706 ,95,5154366044109
19.396151 ,Left ,66,3150593824217 ,43,6491718320829 ,95,4973115311916
19.4194728 ,Left ,66,3201100672718 ,43,5049073101556 ,95,457623483181
19.4418011 ,Left ,66,3104285580222 ,43,3090279594105 ,95,390749493264
19.4561553 ,Left ,66,2345022342863 ,43,1715482952718 ,95,2939122228021
19.4794102 ,Left ,66,1544424301042 ,43,0765212253861 ,95,1643758527096
19.501558 ,Left ,66,0310817301948 ,42,9812226715688 ,95,0665062223225
19.5231476 ,Left ,65,9141067916313 ,42,8671163655299 ,94,9629918954101
19.5394236 ,Left ,65,9400328422452 ,42,9287992769021 ,94,8238367980926
19.5619305 ,Left ,65,8221453409622 ,43,0322703623505 ,94,768123629995
19.5831525 ,Left ,65,6815518827642 ,43,0908128388296 ,94,7412198336601
19.5993852 ,Left ,65,4697922584264 ,43,1447850408016 ,94,737675897506
19.6219171 ,Left ,65,2499172936676 ,43,2106842104777 ,94,7493406340814
19.6432347 ,Left ,65,0697680301782 ,43,3110010648959 ,94,7595999145809
19.659662 ,Left ,64,872136455416 ,43,4154491731947 ,94,7713345371708
19.6818373 ,Left ,64,6737797686127 ,43,5272055713605 ,94,7748918119976
19.7030094 ,Left ,64,5102072163975 ,43,6333723412428 ,94,7783795178949
19.7191594 ,Left ,64,3416156337982 ,43,7873670790808 ,94,7686151544068
19.7415927 ,Left ,64,1876769989429 ,44,0050906966873 ,94,7421776521542
19.7626869 ,Left ,64,0623257189962 ,44,2586903158099 ,94,7269587181675
19.7793375 ,Left ,63,9342669224858 ,44,5435883002337 ,94,7376009381
19.8023558 ,Left ,63,8509983934647 ,44,6442296866909 ,94,7461375361425
19.8234903 ,Left ,63,8624651842099 ,44,7819464020249 ,94,7699467760466
19.8460084 ,Left ,63,9454582622404 ,44,9297182014825 ,94,8104432589204
19.8598386 ,Left ,64,0109563570702 ,45,0902896841687 ,94,8433663676879
19.8761242 ,Left ,64,0575827590459 ,45,2290191500637 ,94,8908799569912
19.898651 ,Left ,64,0696755987404 ,45,1147875601487 ,94,933896063748
19.9198364 ,Left ,64,0792830373146 ,45,0366075904653 ,94,9802875405246
19.93612 ,Left ,63,9933689034006 ,45,0209382508852 ,95,0777149725986
19.9587992 ,Left ,64,3293549186944 ,45,1574825500622 ,95,0451461831894
19.9798675 ,Left ,64,3621405599333 ,44,9659165049468 ,95,0827484427752
19.996274 ,Left ,64,3415741564173 ,44,8456749014985 ,95,1211701824126
20.0186436 ,Left ,64,6592630001556 ,44,7346454240077 ,95,0451889309801
20.0395388 ,Left ,64,7834133323893 ,44,4214751059389 ,95,0004459115643
20.0561169 ,Left ,64,9049140021318 ,44,2585208683056 ,94,9227604839118
20.0786216 ,Left ,64,9378223809584 ,44,0510131563001 ,94,8806857891496
20.0999158 ,Left ,64,9732638003111 ,43,8625305613807 ,94,8360980677985
20.1163768 ,Left ,64,9953583950162 ,43,7255291526437 ,94,7815539596775
20.13871 ,Left ,65,0497919122592 ,43,7273487290896 ,94,6812129070967
20.1598222 ,Left ,65,0283507247287 ,43,6690005875742 ,94,5853801215471
20.1763392 ,Left ,64,8779997115363 ,43,5476445178879 ,94,605917135948
20.1986476 ,Left ,64,7353795365939 ,43,4924785150445 ,94,6679862677178
20.2197936 ,Left ,64,7313685551909 ,43,5956368224324 ,94,710480487081
20.2394467 ,Left ,64,6766985907819 ,43,6102688367956 ,94,7734223384825
20.2586094 ,Left ,64,66789203663 ,43,6057345029488 ,94,8787546694136
20.2799544 ,Left ,64,6308019851481 ,43,6799881171001 ,94,9919224146841
20.2960429 ,Left ,64,6128969693896 ,43,7091375018751 ,95,0871695693908
20.3184622 ,Left ,64,6453943158292 ,43,7583023273031 ,95,1891245422599
20.3395608 ,Left ,64,6609760064684 ,43,9133850864584 ,95,2610396661057
20.3561572 ,Left ,64,7501775046009 ,44,109862682655 ,95,2965253557428
20.3786427 ,Left ,64,8610018151357 ,44,2844096870869 ,95,2954057425204
20.4009982 ,Left ,64,9539795292511 ,44,3982187876117 ,95,2917480832815
20.4159988 ,Left ,65,0487394224393 ,44,4255522360454 ,95,2937578584
20.4388535 ,Left ,65,1429937327291 ,44,3974538895078 ,95,2882159138872
20.4613412 ,Left ,65,1875268997936 ,44,2803847542759 ,95,3089747737067
20.4762264 ,Left ,65,2421359014905 ,44,1158439164318 ,95,3612142155276
20.4988939 ,Left ,65,2793378507546 ,43,951551988601 ,95,4054852339474
20.5206159 ,Left ,65,3322849873835 ,43,7854851978617 ,95,4171141618815
20.5430418 ,Left ,65,4126179653801 ,43,6093179810701 ,95,413208932473
20.5580483 ,Left ,65,4609792480123 ,43,4815701686287 ,95,4099719922476
20.5806877 ,Left ,65,4396634562128 ,43,3919222332097 ,95,4217726484651
20.6029064 ,Left ,65,395212127995 ,43,3124171497767 ,95,4440141022362
20.617957 ,Left ,65,3591398393492 ,43,2330419343598 ,95,4851190069336
20.6406313 ,Left ,65,3580877096211 ,43,1721077003473 ,95,5192926888384
20.6565124 ,Left ,65,377582087396 ,43,1310436316765 ,95,5012130405501
20.6779299 ,Left ,65,3992557918974 ,43,1732551697932 ,95,5147079778561
20.7004489 ,Left ,65,4140924223733 ,43,2691922435347 ,95,5173721041067
20.7166835 ,Left ,65,4210307492185 ,43,3363082049721 ,95,4806216121103
20.7385189 ,Left ,65,4525888604476 ,43,3946592017676 ,95,4126806134126
20.761758 ,Left ,65,4308535974493 ,43,5815471323378 ,95,3785179896579
20.7843019 ,Left ,65,3837411860448 ,43,7623169283583 ,95,3306356609827
20.8053886 ,Left ,65,4217457735289 ,43,832012524358 ,95,3551818330922
20.8218648 ,Left ,65,4391390903274 ,43,9245571751233 ,95,4821029455437
20.8444466 ,Left ,65,4328834709928 ,44,1268775792547 ,95,5432400241948
20.8656328 ,Left ,65,4542135170758 ,44,2843145654726 ,95,5143103000649
20.8818863 ,Left ,65,4445289792476 ,44,4549890857288 ,95,5011817820361
20.9043554 ,Left ,65,4030406396058 ,44,6059598720217 ,95,4646350267734
20.9256576 ,Left ,65,3696373772105 ,44,7195827408428 ,95,421011579467
20.9419071 ,Left ,65,3410625029452 ,44,7831788591221 ,95,3954165404861
20.9643767 ,Left ,65,2198082107083 ,44,8026309799293 ,95,4598317269338
20.9854456 ,Left ,65,1146851300029 ,44,7357135124302 ,95,4908607420028
21.0018598 ,Left ,65,112095242739 ,44,5828099516933 ,95,5156207847411
21.0243693 ,Left ,65,1824832611812 ,44,692963806039 ,95,5161504793633
21.0456358 ,Left ,65,0367201006163 ,44,9095814284643 ,95,4317626721066
21.0621248 ,Left ,65,0069842655134 ,45,0787323591493 ,95,3091595005076
21.0844208 ,Left ,65,1154555926519 ,45,1969478532389 ,95,2184119342767
21.1056458 ,Left ,65,1551421894202 ,45,2187055571538 ,95,176086373313
21.121549 ,Left ,65,1308841811179 ,45,1997188791457 ,95,1559803491739
21.1440909 ,Left ,65,131382592217 ,45,1873232916891 ,95,130976403217
21.1653822 ,Left ,65,1578088731825 ,45,1815644543735 ,95,0965505187787
21.1819152 ,Left ,65,2282002630943 ,45,1754846648249 ,95,0742463353328
21.2043258 ,Left ,65,2805643412041 ,45,1698609240813 ,95,075485230873
21.2253091 ,Left ,65,3448276625122 ,45,1399599291883 ,95,0949390790999
21.2418535 ,Left ,65,4306360740712 ,45,0540703002485 ,95,1377465165413
21.2642963 ,Left ,65,5146896928718 ,44,9261802200572 ,95,1898755537857
21.2869353 ,Left ,65,5629424846016 ,44,764041172126 ,95,2582727014417
21.3011033 ,Left ,65,6587555418093 ,44,5367655167903 ,95,3503732542884
21.3243646 ,Left ,65,8289721495359 ,44,245247730014 ,95,436859693559
21.346912 ,Left ,66,0340196086103 ,43,9338551783506 ,95,4739452375506
21.3612139 ,Left ,66,1409901161956 ,43,6978375995254 ,95,4793289182674
21.3843377 ,Left ,66,1951012129359 ,43,536858971394 ,95,4697871273937
21.407215 ,Left ,66,3004483311956 ,43,4372458413997 ,95,4433280263662
21.4215941 ,Left ,66,3955122734704 ,43,3829249676152 ,95,4142465559422
21.4449217 ,Left ,66,427959048784 ,43,3893661077817 ,95,391104714575
21.4673518 ,Left ,66,3992396622392 ,43,4569032585021 ,95,3819872368783
21.4816308 ,Left ,66,3567434620566 ,43,5772996797718 ,95,373687086594
21.5043527 ,Left ,66,3108902947187 ,43,7249492793186 ,95,3616596344954
21.5296056 ,Left ,66,2562044045332 ,43,8888467089382 ,95,3525625189712
21.5406113 ,Left ,66,1953052302898 ,44,0718904887445 ,95,332163479147
21.5629575 ,Left ,66,1212476872325 ,44,254399294855 ,95,2972133723138
21.5793082 ,Left ,66,0587522154968 ,44,4221859231116 ,95,2503113393311
21.6001986 ,Left ,65,9748985994162 ,44,5825572257059 ,95,1875144185708
21.6235328 ,Left ,65,8558397538338 ,44,696905715919 ,95,1229429917068
21.6398191 ,Left ,65,7267789554157 ,44,7396704533606 ,95,0688909063386
21.6606847 ,Left ,65,6285304704285 ,44,6989280519279 ,95,046098650348
21.6832467 ,Left ,65,5612853595882 ,44,6333636415058 ,95,0309408586587
21.6993817 ,Left ,65,4544258463019 ,44,5533768597088 ,95,0299112941331
21.7209185 ,Left ,65,4842849896461 ,44,5095965917425 ,95,0073128910613
21.7431927 ,Left ,65,3967850039361 ,44,5262821931496 ,94,9762175830821
21.7596117 ,Left ,65,4169113235238 ,44,523844252064 ,94,9339651978462
21.7802408 ,Left ,65,5552349464384 ,44,4017084718259 ,94,8770887784589
21.8027413 ,Left ,65,7690416008349 ,44,1966721580957 ,94,8105642645815
21.8192386 ,Left ,65,9098689152164 ,43,9632807754139 ,94,7505723962401
21.8404919 ,Left ,65,8872973462376 ,43,7017201382581 ,94,7137886681697
21.8631448 ,Left ,65,8133659831398 ,43,4730065052908 ,94,6878553239081
21.8793887 ,Left ,65,8562399903074 ,43,3335619855631 ,94,6594820111588
21.9008132 ,Left ,65,8299124938644 ,43,1617800755532 ,94,7039272068657
21.9306709 ,Left ,65,8963887087857 ,42,9753764723667 ,94,8571513530842
21.9394225 ,Left ,65,8923540345211 ,43,0510937311826 ,94,9996100896448
21.9605296 ,Left ,66,0184339150178 ,43,2731856834267 ,95,0183459511086
21.9831506 ,Left ,65,9689923871195 ,43,5249241100178 ,95,1262344414783
21.9993975 ,Left ,65,9121128439741 ,43,5683078304296 ,95,2697178148947
22.0206699 ,Left ,65,7766802013418 ,43,5948213020095 ,95,3870190050219
22.042901 ,Left ,65,6011817159707 ,43,5982571155827 ,95,4352656349746
22.0593346 ,Left ,65,4357572427522 ,43,5141023561605 ,95,4394835680447
22.080275 ,Left ,65,2794317017189 ,43,351151767817 ,95,464711376731
22.1026752 ,Left ,65,1789166744213 ,43,2264865128044 ,95,4964924335334
22.1191482 ,Left ,64,9951668123119 ,43,1961203971706 ,95,4760976336425
22.1401684 ,Left ,64,8106767254835 ,43,224847856807 ,95,4220930297319
22.1629227 ,Left ,64,6635054171989 ,43,3044894406539 ,95,3479274311333
22.1793467 ,Left ,64,6006946084019 ,43,3992972297738 ,95,2613812490644
22.2005429 ,Left ,64,5781046311435 ,43,5198630751991 ,95,1766018936355
22.2231887 ,Left ,64,518484732642 ,43,6467182776633 ,95,1023314482744
22.2395994 ,Left ,64,4687070032595 ,43,651985147822 ,95,0311120125917
22.2606712 ,Left ,64,3939272070726 ,43,6571447508491 ,94,9611219873708
22.2833466 ,Left ,64,3361989381056 ,43,67323267524 ,94,8933662382378
22.2989 ,Left ,64,2924469398754 ,43,709437388833 ,94,8126181604549
22.3206954 ,Left ,64,2283762613405 ,43,7777556497973 ,94,7171020005666
22.3432178 ,Left ,64,1612597498185 ,43,8561325417594 ,94,6475491859857
22.3589096 ,Left ,64,1533022242572 ,43,9743594866409 ,94,5892950831451
22.3808063 ,Left ,64,1304324496239 ,44,1402057595916 ,94,5375805308011
22.4032029 ,Left ,64,1197909715407 ,44,3299741786029 ,94,4943985700156
22.4269998 ,Left ,64,1588335559523 ,44,4939913720743 ,94,4583224729503
22.4495956 ,Left ,64,1894633811288 ,44,5852256837945 ,94,4521623831535
22.4638033 ,Left ,64,2232672026766 ,44,627167631987 ,94,4758801382633
22.4869012 ,Left ,64,24288379216 ,44,6598298638216 ,94,5316316395055
22.5094418 ,Left ,64,2992237759151 ,44,6076985852344 ,94,6369967836876
22.5305007 ,Left ,64,4347470441278 ,44,5160258148391 ,94,7920141871159
22.5469891 ,Left ,64,4653968275578 ,44,5817391586685 ,94,9029201055741
22.569411 ,Left ,64,5305571090009 ,44,734756634738 ,94,9430246131398
22.5907028 ,Left ,64,7316032587335 ,44,849669101902 ,94,934173419604
22.6144361 ,Left ,64,9137886753092 ,44,8850629136622 ,94,9284594429835
22.6294833 ,Left ,65,0257484390218 ,44,8516260548161 ,94,9453570501932
22.6507618 ,Left ,65,0511592961121 ,44,7772541256999 ,94,9806154861458
22.6666709 ,Left ,65,0426907300692 ,44,6402735584087 ,95,0131437676848
22.6892221 ,Left ,65,0443523872587 ,44,4503570226251 ,95,0575915351047
22.7103387 ,Left ,65,0215847371894 ,44,2477507463366 ,95,1058399894463
22.7282877 ,Left ,65,0290229389981 ,43,9940889744087 ,95,164158818669
22.7496519 ,Left ,65,0959165524765 ,43,7915511028994 ,95,1933674355201
22.7704234 ,Left ,65,1421957229074 ,43,6077424008704 ,95,2179530244758
22.7868283 ,Left ,65,2439335624857 ,43,6287339260707 ,95,2315479847701
22.809481 ,Left ,65,2278740544619 ,43,729706421134 ,95,2068113992524
22.8305743 ,Left ,65,230472557681 ,43,8232387035434 ,95,157249613379
22.8468586 ,Left ,65,2928737677175 ,43,9338931191858 ,95,1212482463163
22.8693826 ,Left ,65,2671270364368 ,44,074820788636 ,95,102257217598
22.8919384 ,Left ,65,1880397004874 ,44,2040871834884 ,95,1134098547837
22.9065338 ,Left ,65,1563544454374 ,44,3400634315285 ,95,2448157787483
22.9293613 ,Left ,65,1649549786507 ,44,6121382930526 ,95,3529323147475
22.9503394 ,Left ,65,1340730074273 ,44,8320304929499 ,95,3540113956651
22.9666268 ,Left ,65,1378931164363 ,44,936677156432 ,95,349062345444
22.9891909 ,Left ,65,1062334975637 ,45,0802490427824 ,95,3837279736359
23.0102244 ,Left ,64,9821608332079 ,45,1404555125136 ,95,4231834743715
23.0259197 ,Left ,64,9623762194284 ,45,074274530725 ,95,4313373753247
23.0490881 ,Left ,64,9161896641435 ,44,9385293128293 ,95,5137732267488
23.070383 ,Left ,64,8985308819461 ,44,8158573417451 ,95,5551163814899
23.0866158 ,Left ,64,9630399740118 ,44,758126791363 ,95,5607950209222
23.109343 ,Left ,64,9400478516653 ,44,9228944872251 ,95,5762615732793
23.1301264 ,Left ,64,8529781659292 ,45,1357666718016 ,95,5256978091178
23.1465321 ,Left ,64,8965750000062 ,45,2678947115311 ,95,4176284206744
23.1696094 ,Left ,65,0352080427935 ,45,3839622861154 ,95,3027747593967
23.1923384 ,Left ,65,0151187555103 ,45,4769029167444 ,95,2073027033986
23.2065562 ,Left ,64,9798491988261 ,45,4955402894696 ,95,1591929867021
23.2298028 ,Left ,64,9468441180219 ,45,4733855166939 ,95,102519473889
23.2518849 ,Left ,64,904036413219 ,45,4132787132279 ,95,0384937422255
23.2662932 ,Left ,64,9127162384407 ,45,3353244663604 ,94,9595668798746
23.2893607 ,Left ,64,9180706665499 ,45,1378085736731 ,94,9164481934227
23.3117351 ,Left ,65,0077447414373 ,44,9632431277 ,94,9183043726604
23.3261802 ,Left ,65,0152597543976 ,44,9552218635916 ,94,8943021772279
23.3492244 ,Left ,65,1184225040843 ,44,9669810236601 ,94,841564800334
23.3723749 ,Left ,65,251120672967 ,44,9034377335123 ,94,7853956391785
23.3861051 ,Left ,65,4305484704058 ,44,6700149995593 ,94,7013272571487
23.4091514 ,Left ,65,5359646584716 ,44,3494826967512 ,94,6471970036626
23.4318257 ,Left ,65,5781071277779 ,44,0388883307751 ,94,6286001752561
23.452712 ,Left ,65,6105280191089 ,43,7646829949076 ,94,6165502899036
23.4691966 ,Left ,65,6103607696066 ,43,4530930682972 ,94,6262680692064
23.491594 ,Left ,65,7385109208331 ,43,1757370950251 ,94,7268801445638
23.5127876 ,Left ,65,7884012419281 ,43,1222984853986 ,94,8174116728323
23.5292766 ,Left ,65,8249271281933 ,43,2415057013354 ,94,8568165612492
23.5519779 ,Left ,65,8584123430091 ,43,3216222128877 ,94,9124582926504
23.572925 ,Left ,65,9487109139885 ,43,3343934796828 ,94,9986581478401
23.5896346 ,Left ,66,0018138609447 ,43,3238550734351 ,95,0807525687113
23.6118589 ,Left ,65,9776580780411 ,43,33162037278 ,95,1485940699846
23.6335566 ,Left ,65,9855213868414 ,43,3236734323275 ,95,1598266364605
23.6499503 ,Left ,65,9710833285266 ,43,247652106765 ,95,1479625456228
23.6714494 ,Left ,65,9292588172507 ,43,1489529305321 ,95,1194549473023
23.6928582 ,Left ,65,8626517505032 ,43,0375778861864 ,95,0730103004457
23.7094306 ,Left ,65,7887383275582 ,42,9632070228189 ,95,0127988751093
23.7318432 ,Left ,65,6972910240189 ,42,9384973858567 ,94,9311449757084
23.7530038 ,Left ,65,635202229184 ,42,948234294367 ,94,8382086078479
23.7692897 ,Left ,65,5996654747403 ,42,9627395704508 ,94,765002098764
23.7922123 ,Left ,65,5687426207827 ,42,9391828545157 ,94,7117020043984
23.8134406 ,Left ,65,5504776811549 ,42,9330908687724 ,94,6246452037059
23.8297079 ,Left ,65,455793623859 ,42,9222820425626 ,94,5429539752076
23.8520984 ,Left ,65,3944530580244 ,42,9123862074313 ,94,4761501313263
23.873422 ,Left ,65,3222965869233 ,42,9098792344217 ,94,4301979827588
23.8957362 ,Left ,65,2296708481368 ,42,9235695663587 ,94,4002920979343
23.9119353 ,Left ,65,1567724946597 ,42,9301372410633 ,94,3774481187866
23.9343773 ,Left ,65,1057971696198 ,42,9403334545261 ,94,3448697418461
23.9555616 ,Left ,65,0392698341588 ,42,9537989976048 ,94,3174471479019
23.9718065 ,Left ,65,0120422191694 ,42,961445285172 ,94,2831738965776
23.997739 ,Left ,64,9887053028275 ,42,9540224851615 ,94,2565944253173
24.0014641 ,Left ,64,9729899357798 ,42,9306859117124 ,94,2643389589092
24.0243594 ,Left ,64,9949897053328 ,42,9027433350207 ,94,2919324563965
24.0453962 ,Left ,64,9974256795158 ,42,8440968810605 ,94,3178136749367
24.0611383 ,Left ,64,9670478732663 ,42,6597620052765 ,94,3301112224527
24.0843403 ,Left ,64,9289270678071 ,42,567174655871 ,94,3390501200633
24.1055152 ,Left ,64,7796138378199 ,42,5399193504173 ,94,3926268591137
24.1212064 ,Left ,65,0059982396352 ,42,6612541495094 ,94,2687424590691
24.144421 ,Left ,64,9455439962544 ,42,5703371452711 ,94,2707933341148
24.1655096 ,Left ,64,8062623643184 ,42,5993718463817 ,94,318682420093
24.1811374 ,Left ,65,0028109032023 ,42,7196343363267 ,94,1898662025517
24.2035975 ,Left ,65,0207511211159 ,42,8154285890247 ,94,1429028678225
24.2256227 ,Left ,65,0128286658945 ,42,8489881559623 ,94,1007234518076
24.241199 ,Left ,64,9845629032066 ,42,9161268036828 ,94,0579464166573
24.2636695 ,Left ,64,9570162020519 ,43,0302498267649 ,94,0236406351153
24.2854594 ,Left ,64,9292186024885 ,43,1789168561468 ,94,0136758329513
24.3012089 ,Left ,64,9051572335598 ,43,3254687693235 ,94,0177626429447
24.3237648 ,Left ,64,8079800641555 ,43,4886653052708 ,94,0798613730327
24.3454875 ,Left ,64,9458795755888 ,43,7498131467986 ,94,060009839634
24.3611915 ,Left ,64,8876251805479 ,43,8956395136209 ,94,1434652627344
24.3850603 ,Left ,64,9470935815907 ,43,8843084403199 ,94,2020788703738
24.4068351 ,Left ,64,9715203834016 ,43,881710048242 ,94,3073397634319
24.4213237 ,Left ,65,0347738196933 ,43,9240469586082 ,94,396805123285
24.4438089 ,Left ,65,1057860565928 ,44,0337848718847 ,94,4238238878868
24.4669494 ,Left ,65,2804476868147 ,44,143464533043 ,94,3842399383168
24.4810737 ,Left ,65,4336931700058 ,44,1561663513239 ,94,3242811675444
24.5036497 ,Left ,65,5148190352103 ,44,1279296363004 ,94,2928374617578
24.5267815 ,Left ,65,5392034411452 ,44,0789056453475 ,94,2701640644254
24.5411613 ,Left ,65,5157314780916 ,43,9603537212167 ,94,2807923201047
24.5636298 ,Left ,65,4760322253803 ,43,8181010221904 ,94,3314051065216
24.5869183 ,Left ,65,5025770946625 ,43,633529279783 ,94,4024239726681
24.6012048 ,Left ,65,5454442107169 ,43,5341545745571 ,94,494822674836
24.6237123 ,Left ,65,5809010816957 ,43,6374499560961 ,94,5295736573597
24.6468031 ,Left ,65,6123523425733 ,43,8074262033607 ,94,5465247455141
24.6681405 ,Left ,65,6523503491994 ,43,918675806133 ,94,5748802547278
24.6837215 ,Left ,65,6698853872973 ,43,9995286753203 ,94,6411330608556
24.7068905 ,Left ,65,6259800615495 ,44,0217379910632 ,94,691397468181
24.7282684 ,Left ,65,5294702971248 ,44,0128011917402 ,94,7415471481061
24.7440047 ,Left ,65,4347622766864 ,43,9734933390539 ,94,7749511956681
24.7667671 ,Left ,65,392034229316 ,43,9690492359996 ,94,8378416890777
24.7879125 ,Left ,65,3314915399176 ,44,0530660021496 ,94,9974237060041
24.8034234 ,Left ,65,2988931764379 ,44,2096390236697 ,95,1247702281801
24.8268687 ,Left ,65,3623233894893 ,44,3180850574984 ,95,1714405378841
24.8481836 ,Left ,65,4162396014575 ,44,3925459667581 ,95,2024503835508
24.8640253 ,Left ,65,3815601937423 ,44,4875658781394 ,95,2410136964692
24.8948023 ,Left ,65,3715395041423 ,44,5619072577067 ,95,2553525515253
24.9169969 ,Left ,65,3189931533407 ,44,5821234746552 ,95,2586723253097
24.9321351 ,Left ,65,3086802136857 ,44,5532171187006 ,95,2922513766979
24.9544369 ,Left ,65,2440338731884 ,44,5195686203843 ,95,3518043708566
24.9758191 ,Left ,65,2054124385341 ,44,393092512179 ,95,4139202061521
24.9914024 ,Left ,65,2807628611638 ,44,2819002289085 ,95,5164257452692
25.0145146 ,Left ,65,3033702550335 ,44,394372306062 ,95,6165055861529
25.035434 ,Left ,65,2412132778666 ,44,6001861445134 ,95,6623602220287
25.0511787 ,Left ,65,3678573718685 ,44,8015302427824 ,95,6583009880898
25.0743506 ,Left ,65,4894963736342 ,44,9946967379203 ,95,6396285538385
25.0969385 ,Left ,65,5660467033983 ,45,1569221299359 ,95,6066361041023
25.1115937 ,Left ,65,5823770713462 ,45,2371197224466 ,95,5765436830934
25.1344109 ,Left ,65,536657088889 ,45,3367597558696 ,95,5145120617752
25.1571023 ,Left ,65,5373611687079 ,45,3845033101626 ,95,4219751377791
25.171154 ,Left ,65,5811174868307 ,45,3589969307446 ,95,3407347568401
25.1944867 ,Left ,65,5479875137817 ,45,2728114294613 ,95,2959706633143
25.2168974 ,Left ,65,4881938473002 ,45,1643065260548 ,95,2776009562163
25.2311987 ,Left ,65,4458415350886 ,45,0550393776123 ,95,231786749186
25.2544352 ,Left ,65,3872674644922 ,44,9151922666834 ,95,1854135188375
25.2767288 ,Left ,65,3711533511309 ,44,7267911647205 ,95,1863008331089
25.2978559 ,Left ,65,3986559266679 ,44,6510090802529 ,95,1863233550178
25.3144029 ,Left ,65,4033889663127 ,44,6669963114232 ,95,1778862944238
25.3367036 ,Left ,65,5184532200254 ,44,6708364972357 ,95,1669430577697
25.3579742 ,Left ,65,6575495033119 ,44,6346928094568 ,95,1342255546059
25.3743638 ,Left ,65,7384638294495 ,44,4566715159155 ,95,0662489177867
25.3969475 ,Left ,65,7899645713143 ,44,2079676613806 ,94,9961073213051
25.4180806 ,Left ,65,7842037147466 ,43,9247807840986 ,94,9794725193918
25.4347364 ,Left ,65,7194177811448 ,43,7112496375287 ,94,9643838332496
25.456927 ,Left ,65,7164106312531 ,43,4899418473474 ,94,9431242899641
25.4779644 ,Left ,65,7421584285293 ,43,2328229887552 ,94,9839826899034
25.4944582 ,Left ,65,7856262740282 ,43,097197633744 ,95,0741658102282
25.5168752 ,Left ,65,7175917999886 ,43,2018238435324 ,95,1328699230542
25.537893 ,Left ,65,6847547278639 ,43,3850553786507 ,95,1806287857185
25.5544658 ,Left ,65,7607242974857 ,43,5412734092248 ,95,2344206157333
25.5769304 ,Left ,65,8458063269885 ,43,6138751962578 ,95,3064160910142
25.599672 ,Left ,65,8923231025455 ,43,6246777731016 ,95,3866429065793
25.6141172 ,Left ,65,9027754194095 ,43,6223398137057 ,95,4316001115352
25.6372589 ,Left ,65,8875595144716 ,43,5845329783355 ,95,4231072806707
25.6594489 ,Left ,65,934248019473 ,43,4969367738471 ,95,3452482108506
25.6737032 ,Left ,65,9435532560893 ,43,3528473905956 ,95,2479177636669
25.6967422 ,Left ,65,9353973371859 ,43,1910071818787 ,95,1600421199727
25.7193214 ,Left ,65,9138650172892 ,43,0543971441672 ,95,0845718630303
25.733701 ,Left ,65,8325318391703 ,42,9821746270379 ,95,0153961124409
25.756834 ,Left ,65,7610552806901 ,42,9485897280072 ,94,9255736873473
25.7780245 ,Left ,65,7219033181788 ,42,9131920411566 ,94,8135327312203
25.7936752 ,Left ,65,6654040658965 ,42,8653912561641 ,94,7279589947062
25.8168739 ,Left ,65,6294299964057 ,42,824898536729 ,94,6660298554749
25.8393073 ,Left ,65,5680269388911 ,42,8268962164391 ,94,5865970101448
25.8536564 ,Left ,65,4592242202347 ,42,8386872225672 ,94,5095697564654
25.8768089 ,Left ,65,3827041435744 ,42,8617075814863 ,94,4310562804762
25.899333 ,Left ,65,2973666676827 ,42,8846732661442 ,94,3550915332198
25.9136802 ,Left ,65,1991330579948 ,42,8933060494127 ,94,2960949510226
25.9366602 ,Left ,65,1159387557539 ,42,9003536714189 ,94,2702593672789
25.9593152 ,Left ,65,0616025244657 ,42,9208649471598 ,94,2538649667539
25.97361 ,Left ,64,9953813402984 ,42,9674989367827 ,94,243937181178
25.996872 ,Left ,64,9300115335883 ,43,0208922847413 ,94,238985146216
26.0192475 ,Left ,64,9046201769873 ,43,0600639914843 ,94,235485419494
26.0337393 ,Left ,64,8879926460152 ,43,0845709179624 ,94,2446861088297
26.0568993 ,Left ,64,8966459107017 ,43,103954260469 ,94,2636345445619
26.0793489 ,Left ,64,9306306129989 ,43,1225847243002 ,94,2879354433619
26.0848824 ,Left ,64,978155736395 ,43,1569390288766 ,94,2958008580055
26.1012558 ,Left ,65,0405579235749 ,43,2252432712666 ,94,2833726404273
26.1222637 ,Left ,65,1821889572448 ,43,3227219761673 ,94,2375983293911
26.1446788 ,Left ,65,0855425136081 ,43,2970963345973 ,94,2565007225895
26.1612429 ,Left ,65,0699541561473 ,43,123375133536 ,94,2394776960782
26.1822554 ,Left ,65,0954117258069 ,42,948437081008 ,94,1917759989762
26.2047666 ,Left ,65,1388793548477 ,42,7945751084703 ,94,1210641581058
26.2212183 ,Left ,65,1709320870228 ,42,6523182533713 ,94,0574190765802
26.2423968 ,Left ,65,1654377310295 ,42,5455636375533 ,93,9964226449336
26.2647949 ,Left ,65,1429360755961 ,42,458638337249 ,93,9496753210732
26.2811947 ,Left ,65,1009230263886 ,42,4118817975122 ,93,9040370046696
26.3022511 ,Left ,65,0326380037261 ,42,3991108177992 ,93,8664163511649
26.324771 ,Left ,64,9603974552917 ,42,3632098021879 ,93,8618881321933
26.3411142 ,Left ,64,9235180219524 ,42,2649323231889 ,93,875981654693
26.3622201 ,Left ,64,8864824429587 ,42,1233184517371 ,93,9074650284713
26.3849131 ,Left ,64,7462466618242 ,42,0146230855483 ,93,9853624067528
26.4012277 ,Left ,64,7718801328132 ,42,091496916176 ,94,0552798968444
26.4222425 ,Left ,64,7719894775314 ,42,0898281018741 ,94,1746533786887
26.4446328 ,Left ,64,8156140153341 ,42,1444942582146 ,94,268036791836
26.4612185 ,Left ,64,8407163764061 ,42,3106107914568 ,94,324402128055
26.4822258 ,Left ,64,9163324897356 ,42,5154803457425 ,94,3287553331336
26.5046893 ,Left ,65,0438696370267 ,42,6603760054235 ,94,3192880429245
26.5212067 ,Left ,65,1686802927044 ,42,7282232136451 ,94,3345545675294
26.5423067 ,Left ,65,2608008398493 ,42,7221523097371 ,94,3727863739413
26.5648461 ,Left ,65,2467907850118 ,42,6471854537863 ,94,443377915726
26.581202 ,Left ,65,2103303847147 ,42,505999561516 ,94,5376270923929
26.6022107 ,Left ,65,1535187393904 ,42,3458836329546 ,94,6310575582007
26.6246933 ,Left ,65,1311697289003 ,42,1444429561222 ,94,7077336775898
26.6426923 ,Left ,65,1875341470606 ,42,010271654321 ,94,7285240549075
26.6624932 ,Left ,65,2540647041339 ,41,9568431921178 ,94,7514617387137
26.684683 ,Left ,65,3514852309351 ,42,0323160105657 ,94,7620096693836
26.7027351 ,Left ,65,3671974612642 ,42,1034336391804 ,94,7472560685241
26.7219934 ,Left ,65,4031610270957 ,42,1540046145126 ,94,7233773111685
26.7446583 ,Left ,65,456049825043 ,42,246411147448 ,94,6923764127944
26.7610949 ,Left ,65,4283306989545 ,42,3277375482697 ,94,6965363797631
26.7824131 ,Left ,65,3639208930725 ,42,36399246167 ,94,736506563004
26.8046664 ,Left ,65,4010946178787 ,42,361768881051 ,94,8052449479332
26.8211626 ,Left ,65,4130869386871 ,42,4196375942876 ,94,9250058475593
26.8422045 ,Left ,65,4051979589314 ,42,5930925594166 ,94,9883977999978
26.8647206 ,Left ,65,3819246197434 ,42,7516109519747 ,94,9862516928068
26.8826766 ,Left ,65,4005807269093 ,42,8999153090241 ,94,9746198540622
26.9021651 ,Left ,65,3925691219367 ,43,0988398400118 ,94,9705348260113
26.9247703 ,Left ,65,3594809540527 ,43,2535170893493 ,95,0194022811701
26.9426974 ,Left ,65,2478757112302 ,43,3726488520417 ,95,1177540020665
26.9620983 ,Left ,65,1680419690298 ,43,4629568566491 ,95,206986729429
26.9847547 ,Left ,65,144920916117 ,43,511171929821 ,95,246757405366
27.0072037 ,Left ,65,0833125441178 ,43,5319914053045 ,95,2968596162123
27.022401 ,Left ,65,087906033944 ,43,7274510841156 ,95,3045825584297
27.0449747 ,Left ,65,0421175618005 ,43,9728605940724 ,95,2509963273957
27.0674759 ,Left ,65,1418366730603 ,44,1908657243485 ,95,1391581645089
27.0824976 ,Left ,65,1967493267708 ,44,3773717095563 ,95,0413519645901
27.1047715 ,Left ,65,1837656726313 ,44,4744045139104 ,94,9727854275492
27.1272968 ,Left ,65,1351689491887 ,44,5480262949758 ,94,9183942225005
27.1503792 ,Left ,65,0815966419243 ,44,5670214692616 ,94,8671818565382
27.1645664 ,Left ,65,0392147611283 ,44,524757976064 ,94,8307507694265
27.1870724 ,Left ,65,0657729302301 ,44,4108521188914 ,94,8021969600509
27.2021446 ,Left ,65,0688339709987 ,44,2893070853353 ,94,7898992373847
27.2246482 ,Left ,64,9976926757631 ,44,1545411185296 ,94,7887755638457
27.2475875 ,Left ,65,0405249651074 ,43,9906944797317 ,94,7934512402847
27.262526 ,Left ,65,0862846643374 ,43,9739591493545 ,94,7872396316216
27.2846261 ,Left ,65,0452951006167 ,44,0231152470054 ,94,7698626356983
27.307048 ,Left ,65,1081192144671 ,44,0495632243729 ,94,7341615921678
27.3219771 ,Left ,65,2672291040526 ,43,9689490430366 ,94,7154214461391
27.3446009 ,Left ,65,4500034859021 ,43,8963421551697 ,94,6873558312243
27.3672932 ,Left ,65,549406699503 ,43,8450858208997 ,94,6601099665189
27.3838698 ,Left ,65,6042175899941 ,43,786366651856 ,94,6414668687366
27.4047715 ,Left ,65,6682481302826 ,43,7321524421996 ,94,6330794731376
27.4273758 ,Left ,65,7480898582728 ,43,6910200291525 ,94,6370710178935
27.4424328 ,Left ,65,793340041519 ,43,6426347151371 ,94,6505640206026
27.4647918 ,Left ,65,8346271932029 ,43,5710176063506 ,94,6766382686658
27.4872874 ,Left ,65,8720197555023 ,43,4603586444738 ,94,7050888585362
27.5023068 ,Left ,65,9180811245353 ,43,3327135976049 ,94,7394990391152
27.5248966 ,Left ,65,941809230682 ,43,2483686447988 ,94,7598704732349
27.5474054 ,Left ,65,8664234696682 ,43,219187095639 ,94,7909073529388
27.5638548 ,Left ,65,88310482601 ,43,2370865854777 ,94,7715051181864
27.5848769 ,Left ,65,8823903082593 ,43,2127954075919 ,94,7956882486873
27.6073434 ,Left ,65,7844315106566 ,43,1278601314601 ,94,8788227290752
27.6241175 ,Left ,65,6936481983556 ,43,0551815367265 ,95,0220357092467
27.6446064 ,Left ,65,6636745238124 ,43,1942350700611 ,95,0800481449517
27.6672305 ,Left ,65,6499126522976 ,43,4518381397569 ,95,0837084838629
27.6836819 ,Left ,65,6844881661077 ,43,6562482176232 ,95,1308714673987
27.7045755 ,Left ,65,7682049372116 ,43,7970161170187 ,95,2152842071161
27.72729 ,Left ,65,8094331185021 ,43,8731239262188 ,95,2993336418465
27.7437814 ,Left ,65,86031032834 ,43,932694196818 ,95,3356262375671
27.7648462 ,Left ,65,8874973900603 ,43,9113189359331 ,95,3300875208325
27.7872359 ,Left ,65,8953000379476 ,43,7855032785135 ,95,3012321355736
27.8039941 ,Left ,65,9700417959387 ,43,6089097279306 ,95,2586491982373
27.8251821 ,Left ,66,0109527417785 ,43,4577267444392 ,95,1906225422492
27.847815 ,Left ,66,004527620122 ,43,3216975224343 ,95,0806174622652
27.864097 ,Left ,66,0589779554738 ,43,1826197145149 ,94,9488444729043
27.8853436 ,Left ,66,134631947537 ,43,015475132375 ,94,8440659616438
27.9073525 ,Left ,66,1539785194058 ,42,8449041125083 ,94,7713272922463
27.92518 ,Left ,66,1404323139327 ,42,7274685917444 ,94,6705287373701
27.9445187 ,Left ,66,0738790258787 ,42,6191868341322 ,94,5605776423048
27.967271 ,Left ,66,0690368938541 ,42,5180882118785 ,94,4816199124805
27.9851598 ,Left ,66,0277686859679 ,42,4564121159075 ,94,4508447015686
28.0048166 ,Left ,65,9521294237326 ,42,4168694635275 ,94,4337678904144
28.0271955 ,Left ,65,8595900583213 ,42,3989878465454 ,94,4097238820572
28.0451534 ,Left ,65,7704899499179 ,42,4024715746955 ,94,3761580262949
28.0648489 ,Left ,65,707590995338 ,42,4045974256886 ,94,3332564124682
28.0872555 ,Left ,65,6390391208372 ,42,4185594605783 ,94,303292788253
28.1052275 ,Left ,65,5614481062111 ,42,4533196620467 ,94,2727824321939
28.1248535 ,Left ,65,4675589827182 ,42,5031088426799 ,94,2472809395872
28.1474756 ,Left ,65,3838863661369 ,42,5696146409682 ,94,2025006791321
28.1651593 ,Left ,65,283771431106 ,42,6568504753248 ,94,1456542035503
28.1849573 ,Left ,65,1951320529133 ,42,772635042324 ,94,0779984124641
28.2072059 ,Left ,65,1418388187581 ,42,9113352963629 ,94,0294491710369
28.2251623 ,Left ,65,1031813779876 ,43,0813625898485 ,93,9992119901163
28.2448105 ,Left ,65,0146171807635 ,43,2445148856116 ,93,997818582214
28.2674042 ,Left ,64,9909623825204 ,43,3586372020674 ,94,0022378974683
28.2852607 ,Left ,64,9947631202718 ,43,4322486661384 ,94,008722736918
28.3048977 ,Left ,64,9565853378142 ,43,5325126842515 ,94,0532577310953
28.3273688 ,Left ,64,9454474256731 ,43,536568159147 ,94,1103743863206
28.3453568 ,Left ,64,989072849433 ,43,4166036993684 ,94,2284108539724
28.364809 ,Left ,65,056221202654 ,43,4136233538844 ,94,3267504928503
28.3872556 ,Left ,64,9896796990345 ,43,5308917640509 ,94,3795330368804
28.4051033 ,Left ,65,1234261241811 ,43,6896381139667 ,94,3488699723345
28.4247636 ,Left ,65,2841766319723 ,43,7815007083822 ,94,2815971755893
28.4474462 ,Left ,65,3777628319755 ,43,7879640917664 ,94,213781160948
28.4651657 ,Left ,65,4197374654006 ,43,7019414348992 ,94,1604529150675
28.4847742 ,Left ,65,4112286715593 ,43,5755849095885 ,94,1374532923004
28.5074784 ,Left ,65,3970987215001 ,43,4390460128015 ,94,1383849543331
28.5252334 ,Left ,65,3991931867157 ,43,2619698269747 ,94,1762803978984
28.5461839 ,Left ,65,475148404915 ,43,0640876750454 ,94,2610057826837
28.5674293 ,Left ,65,5705046517012 ,43,0334230298719 ,94,3159215974293
28.585203 ,Left ,65,5812514459183 ,43,1028767439862 ,94,2955610446
28.6062618 ,Left ,65,583250830884 ,43,1544511945694 ,94,2770485146304
28.6274347 ,Left ,65,6419412466094 ,43,2996586639458 ,94,2614677939283
28.6451608 ,Left ,65,5984286556746 ,43,4230142447184 ,94,2886918409767
28.6661975 ,Left ,65,6586685029576 ,43,4911360208731 ,94,3284218565539
28.6872615 ,Left ,65,6308855326695 ,43,595381652025 ,94,4450621415449
28.7051116 ,Left ,65,6040723369806 ,43,7740224135722 ,94,4741577094673
28.7264385 ,Left ,65,5251400141035 ,43,8995908944678 ,94,4713657814226
28.7474687 ,Left ,65,4737590615444 ,44,0777571151196 ,94,4910933730226
28.7651339 ,Left ,65,3979749654919 ,44,1991776972231 ,94,5177640378214
28.786203 ,Left ,65,3387964314512 ,44,2082133197914 ,94,5733129318397
28.8075024 ,Left ,65,2307613169193 ,44,1592537620923 ,94,7478738314605
28.825325 ,Left ,65,2886455722382 ,44,1390483952496 ,94,8841694063855
28.8476116 ,Left ,65,2816455880626 ,44,2520719785695 ,95,0148695553005
28.8672928 ,Left ,65,1222596584142 ,44,5123188064996 ,95,0579877686545
28.8852302 ,Left ,65,0489219627017 ,44,7199482117482 ,95,0367892584751
28.9078709 ,Left ,65,1130776995453 ,44,8818573560774 ,94,9852024260883
28.9275143 ,Left ,65,1462312458995 ,45,0050058548171 ,94,9160548672561
28.9453655 ,Left ,65,0722247458386 ,45,0780138353226 ,94,8295374321855
28.9676978 ,Left ,65,011457371261 ,45,1312518628598 ,94,724353843629
28.987313 ,Left ,64,9440739808985 ,45,1073371883955 ,94,6494298582305
29.0052351 ,Left ,64,9267849895352 ,45,0540179912025 ,94,5927105243997
29.0277521 ,Left ,64,8737669759491 ,44,9309802942827 ,94,5744237776313
29.0476187 ,Left ,64,8777085565035 ,44,7665826754961 ,94,5725073272786
29.0652234 ,Left ,64,9326580633619 ,44,6759946583369 ,94,5865946444587
29.0879268 ,Left ,64,8922816196323 ,44,7426391284421 ,94,591843259972
29.1076088 ,Left ,64,8969926958291 ,44,7972598846822 ,94,5971710686683
29.1253777 ,Left ,65,0785454780499 ,44,66970437593 ,94,5834466656739
29.1479027 ,Left ,65,2927047171567 ,44,474202243155 ,94,5161687949481
29.1673294 ,Left ,65,3764963364271 ,44,23461179918 ,94,4574721543375
29.1853211 ,Left ,65,4262432105779 ,43,9768023889056 ,94,3995996329525
29.2078193 ,Left ,65,4101676960093 ,43,7151458414325 ,94,3278001417614
29.227602 ,Left ,65,4738580877144 ,43,5007303908557 ,94,2691204849733
29.2453504 ,Left ,65,5310311988298 ,43,2620876634645 ,94,3022933033764
29.2677806 ,Left ,65,5587287809063 ,43,0155120722206 ,94,4291820212609
29.2888317 ,Left ,65,6521926721447 ,42,9336509150386 ,94,5645745381261
29.3052457 ,Left ,65,6587717127442 ,43,0674877951742 ,94,6379649732308
29.3278167 ,Left ,65,7248318928439 ,43,1953517099405 ,94,7009123911465
29.3474544 ,Left ,65,7955033431536 ,43,2304039525619 ,94,8077671107866
29.3653369 ,Left ,65,8371863826732 ,43,28327337991 ,94,8899985733211
29.392418 ,Left ,65,7836436807666 ,43,3279871265054 ,94,9475572420624
29.4086917 ,Left ,65,767892305977 ,43,3148830526157 ,94,9670514149473
29.4251072 ,Left ,65,7503307268646 ,43,2068201907978 ,94,9808526490735
29.4466314 ,Left ,65,7096662147745 ,43,0836935960081 ,94,972188739035
29.4677791 ,Left ,65,6095400082976 ,42,9683479141832 ,94,93422955214
29.483763 ,Left ,65,5216383305663 ,42,8285714389627 ,94,8483057635207
29.5144731 ,Left ,65,4483666403507 ,42,711796199109 ,94,7442913383753
29.5295654 ,Left ,65,3351503138181 ,42,6443954538108 ,94,6532462389289
29.5436893 ,Left ,65,2463235695244 ,42,5836087123582 ,94,5639914545592
29.5668422 ,Left ,65,1907010980744 ,42,5119113697929 ,94,4704767167605
29.5899932 ,Left ,65,1224515583747 ,42,4582265549777 ,94,3905803875389
29.6104997 ,Left ,65,0354268376172 ,42,4437691320685 ,94,322869873557
29.6269551 ,Left ,64,9322967445393 ,42,468830673309 ,94,2671087538726
29.6491525 ,Left ,64,8437760543993 ,42,5074804789909 ,94,2227705056411
29.6636645 ,Left ,64,7857595299871 ,42,5406784224046 ,94,1734846118406
29.6866961 ,Left ,64,7173241438732 ,42,5678880529748 ,94,1050217775195
29.7090868 ,Left ,64,6574051351947 ,42,6069945601923 ,94,0211435956602
29.7305807 ,Left ,64,6260991418206 ,42,6912324806622 ,93,928769432813
29.7445816 ,Left ,64,5701048107353 ,42,808038308913 ,93,8560911669117
29.7671091 ,Left ,64,6158776254026 ,42,9574651604134 ,93,7712311314337
29.7842717 ,Left ,64,7730222851561 ,43,2398189413036 ,93,6830461107264
29.8050461 ,Left ,64,9328563223339 ,43,5500920622474 ,93,608812044116
29.8274587 ,Left ,64,9302952719451 ,43,6244788171961 ,93,6272642924588
29.8437343 ,Left ,64,7881818639568 ,43,6824386157048 ,93,7332527068891
29.8661534 ,Left ,65,1228933332314 ,43,8889757521898 ,93,662886785466
29.8872455 ,Left ,65,1525516136654 ,43,8720514886531 ,93,6849487376014
29.9099042 ,Left ,65,0986904524088 ,43,9208661670172 ,93,7305187225294
29.9260515 ,Left ,65,1087649682525 ,43,9535565460273 ,93,7844636785428
29.9472751 ,Left ,65,2636300891475 ,43,9323677923976 ,93,8544461336466
29.9698401 ,Left ,65,2588224897917 ,43,8836082702309 ,93,9903217456779
29.9860334 ,Left ,65,3813297368002 ,43,708598110573 ,94,1547500687448
30.0072091 ,Left ,65,5762489558722 ,43,6259228654615 ,94,2806694148971
30.0299436 ,Left ,65,618649245602 ,43,7057470990919 ,94,395624013812
30.046177 ,Left ,65,6097532892949 ,43,9680470397921 ,94,4857598451269
30.0673825 ,Left ,65,9177226736754 ,44,3107111870494 ,94,4209504538746
30.090059 ,Left ,65,9986388006041 ,44,444492118 ,94,4134444610284
30.1062969 ,Left ,66,0770454966011 ,44,4411742122002 ,94,3922022948605
30.1273655 ,Left ,66,027625891606 ,44,3438483599394 ,94,4056207132038
30.1500497 ,Left ,65,9491487654233 ,44,2212908972614 ,94,4453842536636
30.166268 ,Left ,65,8467079917839 ,44,1272864544083 ,94,4544731852783
30.1872839 ,Left ,65,868568346881 ,43,9550407141753 ,94,4396308283417
30.2098773 ,Left ,65,9129088784996 ,43,7790348664911 ,94,4700530219078
30.2262369 ,Left ,65,965141632591 ,43,7089405311379 ,94,4678792369362
30.2475056 ,Left ,65,8915066147695 ,43,6816821899723 ,94,4208447197273
30.2698539 ,Left ,65,9123375212205 ,43,7596976754406 ,94,368098061924
30.2862126 ,Left ,65,8841489826131 ,43,8459615715175 ,94,4049172099358
30.3074986 ,Left ,65,9968821354853 ,43,957872405835 ,94,4208947249934
30.3294785 ,Left ,65,938880395451 ,44,0637423880387 ,94,4600995567822
30.3461875 ,Left ,65,9344892515262 ,44,1162526469894 ,94,559243367851
30.3673359 ,Left ,65,9067036694161 ,44,2028472072275 ,94,6254232934091
30.3898153 ,Left ,65,7485644718956 ,44,3183982912444 ,94,6755145071183
30.4061319 ,Left ,65,7237028276213 ,44,4474346369012 ,94,6950860337589
30.4274181 ,Left ,65,657516212953 ,44,5139451255908 ,94,7622402098698
30.4497605 ,Left ,65,5163329666305 ,44,5053001793573 ,94,8939104776838
30.4662303 ,Left ,65,5401635058154 ,44,4066911369405 ,95,0093795341876
30.4873106 ,Left ,65,569977234645 ,44,519612711552 ,95,1510865625187
30.5101025 ,Left ,65,3808464389021 ,44,8084080501233 ,95,2334786217145
30.5262754 ,Left ,65,2606817843278 ,45,0760947333465 ,95,2725832985785
30.5473711 ,Left ,65,2948366298904 ,45,3192903624807 ,95,2806329184551
30.5698585 ,Left ,65,3647981805042 ,45,5604240071269 ,95,2932886402181
30.5862437 ,Left ,65,3090416100637 ,45,6861573927406 ,95,29110680061
30.607235 ,Left ,65,2447940353625 ,45,7529126960344 ,95,2426622819343
30.6307798 ,Left ,65,2189390416839 ,45,7797531152489 ,95,1581750354714
30.6469773 ,Left ,65,1790773837053 ,45,7835788028911 ,95,071788768352
30.6695199 ,Left ,65,1485459921935 ,45,7531704811783 ,94,9555727726677
30.6905292 ,Left ,65,1321583311322 ,45,6379061941819 ,94,8075087752374
30.7065068 ,Left ,65,1425566226499 ,45,4470500412112 ,94,7061206815503
30.7295431 ,Left ,65,1205832146743 ,45,2709087150417 ,94,6591785687854
30.7519782 ,Left ,65,0538286032431 ,45,1014755357469 ,94,64035346869
30.7662415 ,Left ,65,0589017772902 ,44,8861837082448 ,94,6493282221283
30.789535 ,Left ,65,1059873561246 ,44,8525612914804 ,94,6519907096479
30.8119413 ,Left ,65,0974559026104 ,44,8906446302925 ,94,656331136299
30.8262572 ,Left ,65,2921540538078 ,44,8941882275807 ,94,6466617219534
30.8494855 ,Left ,65,4971065611292 ,44,8470810524977 ,94,6658260625149
30.8719514 ,Left ,65,6295994762922 ,44,7941316481323 ,94,6606713661583
30.8865708 ,Left ,65,656454029178 ,44,6963124369859 ,94,6806981741615
30.9094815 ,Left ,65,7172505441877 ,44,5425260117064 ,94,6842758760075
30.9318827 ,Left ,65,7871385667065 ,44,3318332867918 ,94,6773191934205
30.9461701 ,Left ,65,8364616941738 ,44,1407718471278 ,94,6726774845059
30.9694138 ,Left ,65,8646244446342 ,43,9584878977664 ,94,6739902083124
30.9920242 ,Left ,65,9112748072613 ,43,7718366366214 ,94,6715049605894
31.012978 ,Left ,65,9178836222898 ,43,5920685314601 ,94,6858771371345
31.029471 ,Left ,65,9578465539859 ,43,4320502250012 ,94,732484586602
31.0581058 ,Left ,66,0111838543875 ,43,3430572096765 ,94,7645889798312
31.0731845 ,Left ,66,071038256011 ,43,3175179916747 ,94,7830734783688
31.0894171 ,Left ,66,0878188898456 ,43,3392431739421 ,94,8145495725498
31.1118506 ,Left ,66,0645712507266 ,43,3502522897648 ,94,8803835384088
31.1328822 ,Left ,66,1078196671022 ,43,3571225469561 ,94,9198242716783
31.1494277 ,Left ,66,147950788719 ,43,3444179136032 ,94,924994152904
31.1716966 ,Left ,66,2264540896255 ,43,3705348230646 ,94,9045107228809
31.1929496 ,Left ,66,2310256029047 ,43,4248842593223 ,94,8911060097561
31.2095169 ,Left ,66,2251336214187 ,43,4638663424675 ,94,8747981870224
31.2320421 ,Left ,66,2242281783461 ,43,477776122422 ,94,8487152168994
31.2543773 ,Left ,66,2312976539935 ,43,4624596821939 ,94,8253434949718
31.2693603 ,Left ,66,215425762534 ,43,4460059071758 ,94,8019475775712
31.2917431 ,Left ,66,1798229387658 ,43,4238179109324 ,94,7741885110172
31.3143942 ,Left ,66,1366135305147 ,43,3719222334219 ,94,7484783818883
31.3295297 ,Left ,66,0843231100736 ,43,3004858822932 ,94,7409945337093
31.3516676 ,Left ,66,0056601583922 ,43,2270242086181 ,94,7394306383042
31.3729966 ,Left ,65,976295471889 ,43,1645574505867 ,94,7305354244163
31.3893649 ,Left ,65,9651983842508 ,43,1117573108389 ,94,7137681450583
31.4126158 ,Left ,65,8565965535211 ,43,0225269008571 ,94,7447123389066
31.4328416 ,Left ,65,7475770024164 ,43,0217502682911 ,94,8001507832607
31.4494304 ,Left ,65,5504910541234 ,43,0765008271347 ,94,8304818625171
31.4719351 ,Left ,65,5326233410342 ,43,2152555100319 ,94,8303641208469
31.4944771 ,Left ,65,5654034341242 ,43,4683873100357 ,94,8428021570449
31.5095341 ,Left ,65,639937317587 ,43,8146169237575 ,94,8627671717257
31.53196 ,Left ,65,7078844356603 ,44,0715238363347 ,94,924338158904
31.552913 ,Left ,65,7978882268164 ,44,2549912119994 ,94,9466342752972
31.5692013 ,Left ,65,7916474020531 ,44,3374124038487 ,94,9162372689379
31.5918876 ,Left ,65,7811639408159 ,44,3178716775572 ,94,8903290079311
31.6129893 ,Left ,65,7878771450409 ,44,2339975301182 ,94,8613113169505
31.6285263 ,Left ,65,7929111991916 ,44,0643693796574 ,94,8320041891325
31.6517114 ,Left ,65,8109364576614 ,43,8378619219745 ,94,7743710661218
31.6744084 ,Left ,65,805967498309 ,43,6133274889013 ,94,704219444592
31.6887732 ,Left ,65,8175433886384 ,43,3996549532071 ,94,6359767435462
31.7116822 ,Left ,65,8282756864263 ,43,2617632870134 ,94,550880008749
31.734777 ,Left ,65,7507606756024 ,43,1812183480554 ,94,4801259741538
31.7491253 ,Left ,65,7207225923599 ,43,1262396767066 ,94,4191941870834
31.7723328 ,Left ,65,6898731357003 ,43,0424521295617 ,94,3775625775554
31.7947982 ,Left ,65,7281637403907 ,42,9747481367208 ,94,3537353461009
31.8090991 ,Left ,65,7772862552755 ,43,00408106722 ,94,2928911419918
31.8323026 ,Left ,65,6446131551678 ,43,0142910711103 ,94,2609989337064
31.8549977 ,Left ,65,697226822052 ,43,1046286873469 ,94,1590847994077
31.8687911 ,Left ,65,540682051356 ,43,1466575214159 ,94,1469882841725
31.8921313 ,Left ,65,343372906034 ,43,0853767114093 ,94,1335704868077
31.9159923 ,Left ,65,0972944324762 ,42,9722387428726 ,94,0992047095649
31.9356048 ,Left ,64,8933188593706 ,42,8497595925389 ,94,0707774988696
31.9520123 ,Left ,64,7091357219639 ,42,7518352838123 ,94,0572224640763
31.9747654 ,Left ,64,4664899710349 ,42,6780653346606 ,94,0671607975815
31.9958197 ,Left ,64,2477174349826 ,42,6473740856094 ,94,0621739068563
32.0121204 ,Left ,64,0632916869991 ,42,63332551774 ,94,0455797022291
32.0343972 ,Left ,63,8850663595869 ,42,6644279524032 ,94,0093667430066
32.0556108 ,Left ,63,7055740922467 ,42,730965391417 ,93,9732503789646
32.0719476 ,Left ,63,5365066433494 ,42,8744156714935 ,93,9264391158281
32.0945761 ,Left ,63,3600866563709 ,43,0564452932567 ,93,8957884323159
32.1157523 ,Left ,63,2353266706303 ,43,1828228102069 ,93,871584744416
32.1320328 ,Left ,63,2120484071431 ,43,2747585162785 ,93,8393406448597
32.1545372 ,Left ,63,1998104667376 ,43,3376036235888 ,93,8423678826386
32.175894 ,Left ,63,1995241643343 ,43,3468225712118 ,93,8804363417466
32.1919884 ,Left ,63,2213270923132 ,43,3333053685022 ,93,9359175407019
32.2145847 ,Left ,63,2683972749432 ,43,3569389991541 ,94,0052511432531
32.2357705 ,Left ,63,3314852793 ,43,3863494291402 ,94,0964091933148
32.2519719 ,Left ,63,4524896770223 ,43,4653994318698 ,94,1666267085609
32.2746257 ,Left ,63,6616139504267 ,43,639723902963 ,94,1683774849025
32.2957603 ,Left ,63,8180633353379 ,43,83575171146 ,94,135714954205
32.3121116 ,Left ,63,9417321445068 ,43,9365435225876 ,94,1086161215695
32.3345633 ,Left ,64,0589882404765 ,43,9395032373562 ,94,1176391889953
32.3555774 ,Left ,64,1604319630775 ,43,8958364335339 ,94,1661645445028
32.3720846 ,Left ,64,1765704913926 ,43,758062877705 ,94,259027552312
32.3945339 ,Left ,64,1968468579971 ,43,5664132430185 ,94,371017556817
32.4157406 ,Left ,64,2184024417969 ,43,3533238889781 ,94,4895935446624
32.4320983 ,Left ,64,2933527263256 ,43,1709600626571 ,94,5522963947567
32.4545601 ,Left ,64,4458015526901 ,43,0633112047193 ,94,5851826436654
32.4758418 ,Left ,64,560688536756 ,43,0702508059543 ,94,6010260152937
32.4921549 ,Left ,64,6237232369839 ,43,1022395208906 ,94,5901652970834
32.514244 ,Left ,64,6513099721 ,43,1447504585295 ,94,5669411884858
32.5352765 ,Left ,64,6869430039147 ,43,2737294283733 ,94,5513230854865
32.5517295 ,Left ,64,7169749959647 ,43,4055727478238 ,94,5678853801775
32.5743803 ,Left ,64,6704917092661 ,43,4881587860949 ,94,6143026346669
32.5954593 ,Left ,64,7298993575863 ,43,5916059574406 ,94,6946661334138
32.6113134 ,Left ,64,8037405884782 ,43,7776373964252 ,94,7849086034451
32.6344032 ,Left ,64,7409951730603 ,43,9303520738618 ,94,8239356144614
32.656914 ,Left ,64,7073617958208 ,44,06096741386 ,94,8649709246232
32.6712024 ,Left ,64,6844378563303 ,44,2574641189971 ,94,9066597831934
32.6945853 ,Left ,64,6341968721151 ,44,3536787847332 ,94,9493032009043
32.7169104 ,Left ,64,5755322493592 ,44,3159533616805 ,95,0443715044172
32.7314512 ,Left ,64,5608228995443 ,44,2166095031179 ,95,1621295047849
32.7541922 ,Left ,64,5957370904728 ,44,1718477398113 ,95,2137713306359
32.7768193 ,Left ,64,601317187195 ,44,3280831040646 ,95,2089013797204
32.7912875 ,Left ,64,4965802224538 ,44,5234700153171 ,95,1525822808249
32.8143866 ,Left ,64,4677443582012 ,44,6731064309266 ,95,0832604809569
32.8368666 ,Left ,64,5377019505757 ,44,7922491964042 ,95,013314215342
32.8511741 ,Left ,64,5096470523675 ,44,8940140403732 ,94,9548460935623
32.8805735 ,Left ,64,4958100185249 ,44,9392899547792 ,94,8847678632852
32.8969945 ,Left ,64,4223196430144 ,44,9210047647009 ,94,8624718661948
32.9183444 ,Left ,64,3882018688649 ,44,8867659661582 ,94,8380817317203
32.9347471 ,Left ,64,3407185704554 ,44,800598877823 ,94,821395178769
32.9572174 ,Left ,64,3208516647851 ,44,6622810485469 ,94,8497517572045
32.9714468 ,Left ,64,398100108035 ,44,6101706890916 ,94,8641962117426
32.9945417 ,Left ,64,3852438210208 ,44,6613804082318 ,94,8291812233715
33.0170091 ,Left ,64,4750098003764 ,44,6537597924611 ,94,7745449437967
33.0381297 ,Left ,64,6541342962487 ,44,5059412150272 ,94,7073569779215
33.0546199 ,Left ,64,7581230827556 ,44,2875474408067 ,94,6450747828466
33.0768664 ,Left ,64,7901935145726 ,44,0022007452777 ,94,6038264397986
33.0982576 ,Left ,64,7935419828372 ,43,6657589040641 ,94,5571767072971
33.1144144 ,Left ,64,8285011440697 ,43,381044486217 ,94,5049668476857
33.137166 ,Left ,64,8617428953112 ,43,135458059595 ,94,4450422968018
33.1577387 ,Left ,64,9671073732465 ,42,8943718594995 ,94,4608519429843
33.1743577 ,Left ,65,0896792479193 ,42,8652991495583 ,94,5172599641575
33.1969455 ,Left ,65,0845762722673 ,43,0788928315674 ,94,5303397628164
33.2178828 ,Left ,65,0850898313522 ,43,2742509319977 ,94,5852774921705
33.2343489 ,Left ,65,1836021838576 ,43,3731650224156 ,94,6884414582855
33.2568934 ,Left ,65,2493605594404 ,43,4359731522871 ,94,7845810005284
33.2781731 ,Left ,65,2080797604239 ,43,4725236907676 ,94,8319671566647
33.2939562 ,Left ,65,1943921152128 ,43,4234039739108 ,94,8411812029041
33.3170829 ,Left ,65,2371934143243 ,43,2643223203621 ,94,8174673335708
33.3380622 ,Left ,65,2687161425614 ,43,0686596759091 ,94,7858436733013
33.3541517 ,Left ,65,2561766747812 ,42,9190506672489 ,94,7209481777185
33.3768558 ,Left ,65,2043722149375 ,42,7905747643747 ,94,6029757900033
33.3979445 ,Left ,65,1509521488727 ,42,6997165049284 ,94,4584918471787
33.4144314 ,Left ,65,0749707206136 ,42,6337978300434 ,94,3495676661129
33.4368511 ,Left ,65,0194985939641 ,42,5685576116884 ,94,2500360940988
33.4581808 ,Left ,64,9606873408814 ,42,5027061647166 ,94,1551628288503
33.4743335 ,Left ,64,9068775015322 ,42,4519649253872 ,94,0623326545712
33.4968868 ,Left ,64,8472909461587 ,42,4532090354361 ,93,9564780737793
33.5180764 ,Left ,64,7670984648225 ,42,4789562773742 ,93,8785178284163
33.5339218 ,Left ,64,6971611282077 ,42,515330831788 ,93,8284282662667
33.5570684 ,Left ,64,648094967077 ,42,5741769895918 ,93,7729455628267
33.5794351 ,Left ,64,6017748087405 ,42,6688101993129 ,93,6897900672477
33.5940007 ,Left ,64,5571596952231 ,42,817439758217 ,93,5842597768768
33.6169446 ,Left ,64,511788208613 ,42,9717644643918 ,93,5005245558067
33.6392246 ,Left ,64,5148232404153 ,43,1228487619118 ,93,4542040945681
33.6536345 ,Left ,64,478229683792 ,43,2837210429517 ,93,4479671967217
33.6768841 ,Left ,64,4614537365408 ,43,4250999593041 ,93,4629781021975
33.6995064 ,Left ,64,4608820319553 ,43,4892519488803 ,93,5092805557427
